Time (s):,Headset position x:,Headset position y:,Headset position z:,Headset rotation x:,Headset rotation y:,Headset rotation z:,Right Hand Position x:,Right Hand Position y:,Right Hand Position z:,Right Hand rotation x:,Right Hand rotation y:,Right Hand rotation z:
0.01159166,-0.0004702322,0.01937114,-0.02512914,342.5064,0.4234988,3.633685,0.09176084,-0.4220745,0.05842064,324.136,7.744733,4.240567
0.02222162,-0.0005619079,0.01937521,-0.02515353,342.4927,0.4240695,3.649759,0.09145782,-0.4216255,0.05876822,324.8423,6.399166,4.060421
0.03372937,-0.0006668828,0.01939143,-0.02519166,342.4875,0.4162903,3.667404,0.09112669,-0.4211899,0.0589162,325.467,5.779245,4.492966
0.06113072,-0.0009131655,0.01944929,-0.02536475,342.4458,0.3237681,3.730519,0.09106188,-0.4201981,0.05987125,325.4439,6.374707,4.708646
0.06907838,-0.0009845272,0.01946348,-0.02540533,342.4366,0.3086829,3.757264,0.09120781,-0.4186028,0.06042412,324.802,7.141001,4.761128
0.07769276,-0.001048621,0.01947901,-0.02544556,342.4438,0.2947687,3.753296,0.09137139,-0.4176999,0.06112923,324.6469,7.828331,4.650826
0.08883955,-0.001149375,0.01946246,-0.02550096,342.4224,0.2726708,3.757947,0.09165901,-0.416792,0.0623604,325.1447,8.627155,4.412509
0.1004474,-0.001263924,0.019466,-0.02562124,342.4395,0.2456005,3.735206,0.09192012,-0.4164923,0.06260744,325.8167,8.705986,4.348205
0.112026,-0.001362268,0.01945193,-0.02559497,342.4298,0.2633176,3.741901,0.09202026,-0.4165386,0.06273444,326.933,8.910273,4.237444
0.1226187,-0.001469977,0.01943171,-0.02565021,342.4196,0.2616325,3.741792,0.0922684,-0.41586,0.06326316,327.9638,9.357904,3.527218
0.1336347,-0.001548979,0.01938586,-0.025791,342.3944,0.2695498,3.750366,0.09204963,-0.4158007,0.06258246,328.2532,7.816718,3.295586
0.1442655,-0.001613963,0.01938999,-0.02582246,342.4043,0.2541977,3.75941,0.09179277,-0.4158995,0.06197508,328.3517,6.386267,3.454248
0.1561464,-0.001698315,0.0193656,-0.02593037,342.3967,0.2577528,3.787061,0.0916943,-0.4156713,0.06187543,328.7973,5.813933,3.449451
0.1666077,-0.001759596,0.01936536,-0.02599215,342.3962,0.2486778,3.79332,0.09163327,-0.4154558,0.06192029,329.3106,5.729232,3.295859
0.1780512,-0.001838386,0.01936516,-0.02606764,342.3881,0.2547436,3.815449,0.09155284,-0.4154299,0.06189752,329.5539,5.749107,3.119314
0.1888899,-0.001893546,0.01935058,-0.02614639,342.3655,0.254804,3.829792,0.0914826,-0.4154604,0.06192519,329.5865,5.790733,2.950262
0.2000984,-0.001981452,0.01935447,-0.0262229,342.3699,0.2719616,3.8339,0.09140078,-0.4154775,0.06202305,329.6467,5.924744,2.828963
0.2112589,-0.00203988,0.01936248,-0.02631058,342.3782,0.2730818,3.838878,0.09120089,-0.4156189,0.06218861,329.669,6.116326,2.882867
0.2226614,-0.002115279,0.01936051,-0.02638492,342.363,0.2919406,3.845218,0.0908919,-0.4158518,0.06227431,329.5963,6.158043,3.019656
0.2338181,-0.002169115,0.0193632,-0.02644518,342.3533,0.2945497,3.848519,0.09070094,-0.4159537,0.06218059,329.2975,6.101001,3.13885
0.2447368,-0.002198659,0.01936347,-0.02658591,342.3391,0.3055574,3.863542,0.09012453,-0.4164067,0.06216703,328.955,5.949481,3.217732
0.2559243,-0.002243145,0.01937575,-0.02671141,342.3077,0.329055,3.856868,0.08974732,-0.4167026,0.0620992,328.7142,5.82718,3.306347
0.2667883,-0.002283133,0.01940667,-0.0268189,342.2915,0.3717726,3.852348,0.08941212,-0.4170036,0.06205386,328.5966,5.725946,3.425201
0.2780711,-0.0023325,0.01945149,-0.02686941,342.2971,0.3758134,3.854254,0.08919725,-0.4172517,0.06204583,328.5914,5.702201,3.456809
0.288992,-0.002354563,0.01943032,-0.02695413,342.1986,0.4184456,3.843913,0.08926089,-0.4171803,0.06205766,328.7408,5.804572,3.337829
0.2999468,-0.002422483,0.01947705,-0.02695285,342.2393,0.4023215,3.853402,0.08912083,-0.4173837,0.0620442,328.8277,5.837724,3.23511
0.3122331,-0.002474735,0.01950021,-0.02697943,342.224,0.406426,3.849285,0.08870158,-0.4180244,0.06202098,328.9935,5.760113,3.037198
0.322501,-0.002496082,0.01951328,-0.02700733,342.2134,0.4114435,3.86267,0.08850466,-0.4183472,0.06196457,329.1342,5.690748,2.889561
0.3339837,-0.002556075,0.01953279,-0.02702374,342.2078,0.4197105,3.829774,0.08829169,-0.4186818,0.06192994,329.2787,5.63291,2.816905
0.3444936,-0.002587672,0.01952862,-0.02699742,342.2008,0.4232868,3.838735,0.08801918,-0.4189786,0.0619182,329.4769,5.569266,2.887179
0.3557844,-0.002610806,0.01952233,-0.02698301,342.1963,0.4237454,3.837365,0.0878021,-0.4191928,0.06187276,329.603,5.532957,3.000477
0.366746,-0.002626371,0.01951132,-0.02697381,342.2059,0.4198214,3.808841,0.08768228,-0.419332,0.06180136,329.644,5.585964,2.983459
0.378586,-0.002654549,0.01950045,-0.02692098,342.1931,0.4196068,3.817642,0.08777723,-0.4191626,0.06174105,329.4966,5.693092,2.922212
0.3891531,-0.002665612,0.01946953,-0.02685915,342.19,0.4089763,3.805038,0.08765471,-0.4193593,0.06151908,329.3032,5.963547,2.788767
0.400334,-0.00270018,0.01945899,-0.02680674,342.2016,0.4158192,3.796415,0.08758887,-0.4194442,0.0613666,329.054,6.273415,2.785847
0.4114765,-0.002713277,0.01941504,-0.02672308,342.2007,0.413674,3.80231,0.08761868,-0.4195645,0.06130332,328.8592,6.524889,2.85432
0.4225804,-0.00272692,0.01939319,-0.02668019,342.2249,0.4110491,3.782634,0.08760561,-0.4196851,0.06117423,328.6572,6.685507,2.868018
0.433773,-0.00273029,0.0193524,-0.02660733,342.2327,0.4166975,3.806144,0.0874479,-0.4199149,0.06101938,328.4219,6.697025,2.946947
0.4446376,-0.002775304,0.01933136,-0.02653585,342.2228,0.4310093,3.800661,0.08718565,-0.4202604,0.06091223,328.2211,6.631063,3.095375
0.4557704,-0.002777145,0.01931161,-0.02648135,342.2324,0.427999,3.809095,0.08681873,-0.4208078,0.06096857,328.1009,6.451454,3.352613
0.4665634,-0.002797514,0.01928811,-0.02641456,342.2327,0.4403523,3.818948,0.08652558,-0.4213632,0.06113983,328.0538,6.31946,3.629414
0.4779514,-0.002826743,0.01926739,-0.02634557,342.2417,0.4523484,3.828,0.08634967,-0.4218788,0.06143603,327.9491,6.334949,3.97326
0.4890723,-0.002848,0.01925711,-0.02628978,342.25,0.4553136,3.835544,0.08629925,-0.4222893,0.06170619,327.6444,6.590809,4.285106
0.5002692,-0.002877236,0.01924141,-0.026225,342.2595,0.45092,3.838886,0.08630973,-0.4226072,0.0618403,326.9622,6.974892,4.541975
0.5110744,-0.002902016,0.01921978,-0.02615705,342.2709,0.4585251,3.845845,0.08616962,-0.4228612,0.0616412,325.9248,7.111463,4.811142
0.5226797,-0.002932832,0.01920746,-0.02610365,342.2756,0.4599065,3.848674,0.08598698,-0.4231512,0.06126406,324.9279,6.973192,5.176332
0.5332954,-0.002950184,0.01918778,-0.02602679,342.3047,0.4816311,3.841581,0.08572025,-0.4234231,0.06078352,324.2782,6.583262,5.81262
0.5448157,-0.002989029,0.01917646,-0.02597079,342.2993,0.4699973,3.854328,0.08542972,-0.4236694,0.0605142,323.9586,6.416722,6.395762
0.5556999,-0.003010386,0.01916766,-0.02592216,342.2971,0.4707649,3.857923,0.08516557,-0.4239202,0.06049505,323.7032,6.610531,6.800761
0.567012,-0.003033135,0.01916656,-0.02587282,342.2972,0.4677103,3.866622,0.08509484,-0.4242862,0.06077183,323.4052,7.285719,6.898329
0.578072,-0.003036406,0.01916092,-0.0258221,342.2819,0.4745921,3.877126,0.08509999,-0.4246711,0.06095968,323.001,7.901562,6.906479
0.5889671,-0.003044091,0.01916591,-0.02577312,342.2763,0.4572466,3.885098,0.08517303,-0.4251536,0.06080516,322.3103,8.477586,6.557395
0.5998576,-0.003069259,0.01917298,-0.02572935,342.2797,0.4539047,3.886469,0.08515183,-0.4257322,0.06042757,321.5814,9.025791,6.107996
0.6114919,-0.003083203,0.01917267,-0.02566701,342.2749,0.4535204,3.88782,0.08497951,-0.4263675,0.05986219,320.4753,9.871501,5.318731
0.6229581,-0.003072683,0.01916771,-0.02560167,342.2713,0.456415,3.883132,0.0845456,-0.4269449,0.05934235,319.0522,10.33342,4.511221
0.6334595,-0.003073237,0.0191722,-0.02555427,342.2869,0.4515599,3.888239,0.08308399,-0.4268827,0.05979616,318.1164,6.760583,7.790452
0.6450122,-0.003085745,0.01915905,-0.02547572,342.2848,0.4551823,3.891619,0.08199143,-0.427509,0.05954873,315.2458,6.197994,8.805828
0.6557218,-0.003059417,0.01914456,-0.0253974,342.3007,0.4742871,3.892608,0.0813814,-0.4285097,0.0589257,312.1848,5.33805,9.973979
0.6669081,-0.003051773,0.01913045,-0.02534525,342.3055,0.4631941,3.894543,0.08065812,-0.4301117,0.05822512,309.7118,3.014671,13.10757
0.6784449,-0.003045806,0.0190983,-0.02525897,342.3142,0.4741468,3.882463,0.07986645,-0.4313375,0.05821963,309.232,1.669125,15.91544
0.6891872,-0.003038596,0.01905902,-0.02518073,342.3143,0.4781216,3.897882,0.07908665,-0.431931,0.05855463,309.4137,1.426641,17.49316
0.700111,-0.002999232,0.01901407,-0.02507814,342.3411,0.495013,3.899007,0.07862867,-0.4318041,0.0590605,310.4696,2.402116,17.42038
0.7110788,-0.002943479,0.01898727,-0.02500893,342.3851,0.4944407,3.895563,0.07868032,-0.4314387,0.05883772,310.8762,2.818233,16.22545
0.7230235,-0.002974194,0.01894625,-0.02492598,342.3727,0.4936712,3.888125,0.07864514,-0.4312927,0.0584536,310.4946,2.704345,15.21776
0.7335089,-0.00294089,0.01889458,-0.02482209,342.3977,0.5232323,3.871021,0.07862523,-0.4311778,0.05839587,309.7522,2.952363,14.07062
0.7450318,-0.002884195,0.01885327,-0.02474223,342.4587,0.5398466,3.853503,0.07855233,-0.4311837,0.05860159,308.8525,3.731063,12.87539
0.7592207,-0.002873994,0.01878546,-0.02463717,342.4752,0.5538371,3.85591,0.07831388,-0.4317333,0.05937031,308.3453,4.918377,12.61906
0.7676095,-0.002862307,0.01874508,-0.02457302,342.4818,0.5572658,3.87392,0.07807165,-0.4323191,0.05977166,308.1753,5.722572,12.68523
0.7778018,-0.002874181,0.01870614,-0.02448302,342.4868,0.5573237,3.8722,0.07764514,-0.4331242,0.06033167,308.5512,5.371618,13.7891
0.7890561,-0.002823342,0.01867423,-0.02440921,342.513,0.5439562,3.885466,0.07714321,-0.4337929,0.0602933,308.4833,4.424614,14.85257
0.8003536,-0.002863293,0.01865152,-0.02432896,342.5021,0.5546767,3.869495,0.07679117,-0.4343066,0.0596675,308.1301,3.679796,15.38561
0.8116767,-0.002812275,0.0186217,-0.02422553,342.5133,0.5436966,3.862973,0.07663482,-0.4347762,0.05877496,307.825,2.510835,16.05794
0.8223579,-0.002813753,0.01859777,-0.02412125,342.5154,0.5534841,3.844996,0.07666608,-0.4351042,0.0577307,307.3008,1.550942,16.11275
0.8339624,-0.002765435,0.01857054,-0.02398457,342.5195,0.5416431,3.810789,0.07670916,-0.4352477,0.05729517,307.0432,0.9996537,16.1167
0.8448,-0.002758346,0.01856192,-0.0238948,342.5365,0.5517161,3.795535,0.07676516,-0.4350485,0.05761313,307.2052,1.859817,15.62494
0.8561029,-0.00273071,0.0185145,-0.02375762,342.5188,0.5311403,3.791565,0.0768005,-0.4347797,0.0581895,307.4844,3.042187,15.12602
0.8666205,-0.002687308,0.01850059,-0.02365904,342.5449,0.5045289,3.784574,0.07672337,-0.4346088,0.05856886,307.5292,4.441879,14.62978
0.8784819,-0.002675847,0.01849028,-0.02353032,342.5861,0.5139067,3.761492,0.0764861,-0.4345302,0.05864772,307.4723,4.666193,14.62295
0.888985,-0.002651937,0.01844782,-0.02342352,342.5802,0.4932939,3.769878,0.07615361,-0.4344237,0.05856529,307.0887,4.89429,14.69847
0.900854,-0.002637319,0.01841618,-0.02331223,342.5855,0.4891926,3.780703,0.07598311,-0.4343618,0.05845695,307.0616,5.257689,14.66992
0.9112788,-0.002633533,0.01839368,-0.02321445,342.5911,0.4917982,3.784374,0.07590018,-0.4342778,0.05858628,307.2881,5.726837,14.40693
0.9222302,-0.002617682,0.01836269,-0.02308465,342.6003,0.4801146,3.776983,0.07576644,-0.4343098,0.05898533,307.4711,6.272893,14.10549
0.9338105,-0.002601083,0.01832885,-0.02297447,342.6061,0.4788024,3.773271,0.07566872,-0.4344036,0.05943223,307.8407,6.683865,13.9602
0.9445361,-0.002583695,0.01829789,-0.02289863,342.6172,0.4802857,3.789178,0.07570134,-0.4345249,0.05990096,308.8435,6.62781,13.8686
0.9556777,-0.002552956,0.01825474,-0.02278799,342.6418,0.4858567,3.778117,0.07568443,-0.4345873,0.06015215,309.3471,6.656327,13.7915
0.966271,-0.002525676,0.01820785,-0.02270226,342.6673,0.5008711,3.774399,0.07585797,-0.4346309,0.06014468,309.3814,6.506245,13.7123
0.9779117,-0.002496693,0.01815554,-0.02261489,342.6888,0.5057268,3.766121,0.07617456,-0.434666,0.0599527,309.1926,6.449273,13.57321
0.9884873,-0.002484514,0.01811084,-0.02254974,342.7077,0.531318,3.760751,0.07628366,-0.4347794,0.05971957,308.8239,6.243247,13.71582
0.9994941,-0.00245225,0.01805904,-0.02247862,342.7179,0.5523052,3.772688,0.07651319,-0.4351636,0.05982327,308.1603,5.961351,13.92443
1.011003,-0.002452684,0.01801185,-0.02241837,342.7255,0.562914,3.756223,0.07667666,-0.4355201,0.06011451,307.5229,5.767787,14.37844
1.021724,-0.002445444,0.01797139,-0.0223622,342.726,0.5654572,3.768414,0.07693651,-0.4358284,0.06043075,306.9662,5.839373,14.47008
1.033436,-0.002436872,0.01792363,-0.0223012,342.735,0.574158,3.76438,0.07717759,-0.4361478,0.06082113,306.9326,5.965357,14.42599
1.044397,-0.002408442,0.01788373,-0.02224997,342.745,0.5625258,3.773075,0.07750147,-0.4363263,0.06129222,307.3069,6.198447,13.96662
1.056212,-0.002399396,0.01784214,-0.02218623,342.7482,0.5610639,3.774977,0.07790077,-0.4363617,0.06165323,308.0338,7.217996,12.7691
1.066273,-0.00236651,0.01780955,-0.02214224,342.7617,0.5473376,3.776558,0.07834824,-0.4365206,0.06215319,309.2576,7.92817,11.92416
1.077471,-0.002335619,0.01775623,-0.02207511,342.7791,0.5681593,3.765662,0.07905579,-0.4366863,0.06316359,311.7855,8.501526,11.07299
1.088573,-0.002304252,0.01772549,-0.02203864,342.7959,0.5736883,3.749488,0.07971818,-0.4367153,0.06438469,314.8651,9.371518,9.919069
1.099505,-0.002265137,0.01768078,-0.02199876,342.832,0.6154117,3.723789,0.08029535,-0.4363412,0.06565432,317.9251,10.9228,8.248337
1.111054,-0.002244122,0.01763749,-0.02193741,342.8174,0.6120028,3.738499,0.08091816,-0.4361663,0.06662598,321.0817,11.65592,6.772801
1.122449,-0.002227915,0.01760821,-0.02191288,342.8354,0.6364673,3.731119,0.08187191,-0.4363851,0.06759524,323.8209,12.04234,5.245187
1.133364,-0.00219305,0.01758103,-0.02190184,342.8468,0.6481279,3.747032,0.08298215,-0.4369064,0.06884117,326.3168,12.30136,3.667202
1.144544,-0.002179765,0.01756247,-0.02188933,342.8577,0.6644526,3.751943,0.08401933,-0.4379255,0.07051333,328.3812,12.41555,2.475366
1.15523,-0.002172828,0.01753258,-0.02185739,342.8477,0.6803848,3.763098,0.08497725,-0.4390187,0.07212686,330.0177,12.42378,1.675848
1.166746,-0.002183556,0.01752693,-0.0218289,342.8503,0.6764985,3.742311,0.08617566,-0.4400303,0.07331575,330.7607,12.43943,0.7160637
1.177529,-0.002177894,0.01751857,-0.02181744,342.8511,0.6785091,3.733824,0.08756874,-0.4407656,0.07422379,331.1064,12.83594,359.5005
1.189327,-0.002168193,0.01751838,-0.0218098,342.8482,0.6705971,3.726456,0.08926111,-0.4412384,0.07469909,330.8694,13.62167,357.8433
1.199987,-0.002146691,0.01751436,-0.02182535,342.8358,0.6515118,3.70853,0.0909161,-0.4416969,0.07513435,331.1086,14.09898,356.4102
1.211539,-0.002133089,0.0175113,-0.02181579,342.8,0.6355652,3.696065,0.0928717,-0.441983,0.07598843,332.3338,14.33585,354.9558
1.222551,-0.002106886,0.01750562,-0.02180718,342.7692,0.6188627,3.697018,0.09503489,-0.4420989,0.07718715,334.0796,14.86614,353.2479
1.233424,-0.00209789,0.01750612,-0.02179426,342.7607,0.6163471,3.699205,0.09718585,-0.442145,0.07852946,336.0177,15.3533,351.7245
1.244437,-0.002097446,0.01751058,-0.02178418,342.7439,0.5990548,3.658455,0.09946836,-0.4422827,0.08005746,338.1195,15.77144,350.3908
1.255575,-0.002085019,0.01751886,-0.02177868,342.7408,0.5806558,3.625774,0.1016998,-0.4427413,0.08166751,340.0966,16.17417,349.1423
1.266742,-0.00208677,0.01750228,-0.02173102,342.7323,0.58281,3.624548,0.1037883,-0.4432119,0.08329678,341.8497,16.40742,348.1127
1.27798,-0.00206254,0.01747913,-0.02171107,342.7335,0.5703163,3.605974,0.1062645,-0.4433387,0.08466814,343.1255,16.55699,346.8055
1.288996,-0.002028427,0.0174469,-0.02168925,342.7525,0.5561638,3.595584,0.1088812,-0.4430607,0.08563134,343.8755,17.07473,345.1977
1.30048,-0.002036025,0.01742592,-0.02163162,342.7477,0.5604154,3.592507,0.1116234,-0.4424366,0.08646086,344.5752,17.58654,343.3954
1.311406,-0.002013448,0.01739125,-0.02160042,342.7617,0.5623006,3.574275,0.1148945,-0.4415203,0.08742879,345.5736,18.16515,341.3508
1.322224,-0.002002556,0.01735805,-0.02156084,342.7651,0.5690737,3.559459,0.1183729,-0.4407438,0.08867053,347.153,18.69004,339.0994
1.333304,-0.001996506,0.01733791,-0.02154354,342.7862,0.5698658,3.550513,0.1221568,-0.4400379,0.09030467,349.2238,18.89438,336.7866
1.344514,-0.002012408,0.01730111,-0.02148954,342.7829,0.5796058,3.558936,0.1261496,-0.4398642,0.09200268,351.4532,19.02782,334.3347
1.356044,-0.001994456,0.0172483,-0.02146654,342.8174,0.5671373,3.578133,0.1302625,-0.4399357,0.09371135,353.5872,18.98356,331.2573
1.366443,-0.00202857,0.01722158,-0.02142788,342.8217,0.5741321,3.570828,0.1340034,-0.4398154,0.09516539,354.9443,18.96017,328.2502
1.378152,-0.002056982,0.01717263,-0.0213982,342.8441,0.5904926,3.582,0.1375638,-0.4395906,0.0962505,355.5085,19.28002,325.5699
1.389029,-0.002072807,0.01715849,-0.02138628,342.861,0.5741417,3.588324,0.1409828,-0.4391895,0.09698404,355.8257,19.79779,323.2622
1.40015,-0.002108287,0.01714535,-0.02137698,342.8744,0.5771353,3.596019,0.1440918,-0.4383547,0.0973755,355.6567,20.4318,321.6378
1.411587,-0.002145998,0.01714051,-0.02136755,342.8786,0.583711,3.603293,0.1472037,-0.4373251,0.09777926,355.8312,20.99199,320.4612
1.422838,-0.002196848,0.01714437,-0.02140783,342.8976,0.586459,3.624695,0.1508255,-0.4366119,0.09848863,356.9149,21.36737,318.8835
1.433667,-0.00223517,0.01712117,-0.02138915,342.8625,0.5765674,3.6433,0.1544818,-0.435979,0.09942208,358.5925,21.3558,317.2253
1.444881,-0.002294666,0.01712738,-0.02138231,342.8647,0.569719,3.66746,0.1578452,-0.4353405,0.1004504,0.5745459,20.99214,315.7959
1.455563,-0.00235539,0.01712863,-0.02137123,342.8556,0.5612645,3.677,0.1609711,-0.4347017,0.1013333,2.268117,20.53029,314.3759
1.466807,-0.002422072,0.01714319,-0.02137251,342.8646,0.541655,3.700022,0.1638841,-0.4340046,0.1018694,3.448279,20.2274,313.0001
1.478287,-0.002483516,0.01714844,-0.02136096,342.862,0.5285224,3.705061,0.166802,-0.4333769,0.1021971,4.164836,20.00763,311.3991
1.488992,-0.002531896,0.01714804,-0.02134497,342.8544,0.5120322,3.722669,0.1695705,-0.4326483,0.1022587,4.279144,19.99495,309.9545
1.500035,-0.002583764,0.01715602,-0.02132816,342.8523,0.4966638,3.735156,0.1722069,-0.4319258,0.1022085,4.205645,20.35832,308.8536
1.512208,-0.002643034,0.01718014,-0.02132035,342.8626,0.4865746,3.746498,0.1748813,-0.4312587,0.1022262,4.130275,20.9394,307.8456
1.523501,-0.002705445,0.01720181,-0.02129877,342.8619,0.4778812,3.751101,0.1775571,-0.4307196,0.1022604,3.957132,21.7223,306.9044
1.535278,-0.002756712,0.01722342,-0.02127822,342.8483,0.458052,3.774977,0.1802628,-0.4303671,0.1023784,4.096222,22.27797,305.7573
1.547092,-0.002795707,0.01724659,-0.02125807,342.8489,0.4453233,3.778579,0.1827829,-0.4300974,0.1027469,4.634639,22.28834,304.6821
1.558053,-0.002839308,0.01725482,-0.02121564,342.8464,0.4424308,3.790013,0.1851434,-0.4297352,0.1032313,5.307013,22.02626,303.7255
1.569512,-0.002867659,0.01725623,-0.02117698,342.8449,0.4384225,3.802977,0.1873362,-0.429296,0.1037649,6.078696,21.54143,302.9166
1.580207,-0.002896864,0.01725852,-0.02114118,342.8471,0.4409557,3.806103,0.1895278,-0.4287931,0.1041802,6.803049,21.16485,302.0928
1.591773,-0.002916585,0.01726667,-0.02111816,342.8697,0.4411283,3.81149,0.1916449,-0.428292,0.1044872,7.495951,21.03889,301.3789
1.603255,-0.002943885,0.01725903,-0.0210795,342.8733,0.4455778,3.813177,0.1938471,-0.4276788,0.1047182,7.986648,21.12477,300.8418
1.61418,-0.002952904,0.01725413,-0.02105983,342.8788,0.44947,3.819148,0.1960371,-0.4271392,0.1048517,8.332227,21.34996,300.3471
1.625848,-0.002965659,0.01725434,-0.02103495,342.8801,0.4419379,3.815105,0.1980578,-0.4267015,0.1048539,8.475032,21.77185,299.9857
1.637103,-0.00296433,0.01724166,-0.02099871,342.8645,0.4414479,3.813154,0.1999315,-0.4262462,0.1048089,8.474298,22.17448,299.5971
1.647825,-0.002949502,0.01725453,-0.02099261,342.8772,0.4264753,3.803583,0.2016176,-0.4257418,0.1046529,8.307928,22.49691,299.2498
1.659305,-0.002953146,0.01726212,-0.02096725,342.8764,0.4429813,3.780976,0.2031617,-0.4252125,0.1045436,8.118554,22.60558,298.7867
1.671101,-0.002928164,0.01724229,-0.02093183,342.8555,0.4431396,3.774972,0.2046458,-0.4247539,0.1044577,8.034536,22.54349,298.3232
