Time (s):,Headset position x:,Headset position y:,Headset position z:,Headset rotation x:,Headset rotation y:,Headset rotation z:,Right Hand Position x:,Right Hand Position y:,Right Hand Position z:,Right Hand rotation x:,Right Hand rotation y:,Right Hand rotation z:
0.01098865,-0.1263705,-0.08369593,-0.4794788,355.2517,14.60551,356.6245,0.06094449,-0.4201211,-0.2075322,342.4306,5.041186,342.7327
0.02204643,-0.12656,-0.08362171,-0.4796025,355.2104,14.61425,356.5944,0.06100634,-0.4202114,-0.2074526,342.5898,4.991087,342.4883
0.03581439,-0.1266062,-0.0836104,-0.4796255,355.199,14.6263,356.5972,0.06141438,-0.4202273,-0.2073474,342.6682,5.027815,342.0039
0.05286285,-0.1267532,-0.08360016,-0.4796938,355.1844,14.64457,356.6017,0.06194128,-0.4202954,-0.2071311,342.9932,5.12957,341.3374
0.05943948,-0.1268697,-0.08356995,-0.4797214,355.1605,14.68398,356.6133,0.06225277,-0.4204099,-0.2069169,343.2598,5.101592,340.921
0.06650992,-0.1269342,-0.08355653,-0.4797411,355.1776,14.68715,356.6118,0.06252423,-0.4205624,-0.2067064,343.5163,5.075725,340.5808
0.07793434,-0.1270599,-0.08357763,-0.4797548,355.1551,14.69368,356.62,0.06274989,-0.4208559,-0.2064698,343.7501,5.06297,340.5327
0.08909878,-0.1271723,-0.08358896,-0.4797543,355.1531,14.70325,356.6052,0.06292866,-0.4211024,-0.2062058,343.8535,5.150103,340.555
0.09973273,-0.1272925,-0.08358479,-0.4797583,355.1721,14.713,356.602,0.06300121,-0.4214499,-0.2058839,343.9372,5.298103,340.756
0.1112451,-0.1274045,-0.08360925,-0.4797471,355.1808,14.71731,356.6053,0.06306062,-0.4217865,-0.2055198,344.0858,5.419305,340.9516
0.1220727,-0.1275808,-0.08363417,-0.4797176,355.1959,14.73776,356.6183,0.06315549,-0.4221274,-0.2051439,344.2456,5.575618,341.1138
0.1329203,-0.1277192,-0.08363809,-0.4796987,355.2236,14.73496,356.6196,0.06328198,-0.4223997,-0.2048418,344.4014,5.727453,341.1178
0.1445074,-0.1278631,-0.08367094,-0.4796467,355.2237,14.7557,356.6186,0.06336315,-0.4226009,-0.2046354,344.4896,5.802536,341.059
0.1554449,-0.1279668,-0.08370249,-0.4796049,355.2175,14.76506,356.6344,0.06336202,-0.4227799,-0.2044745,344.5619,5.784541,341.0059
0.1665974,-0.128146,-0.08373536,-0.4795315,355.2128,14.78041,356.6605,0.06334089,-0.4229576,-0.2042716,344.6768,5.738038,340.9785
0.1775149,-0.1282661,-0.0837223,-0.4794931,355.2384,14.78631,356.6526,0.06339519,-0.4231427,-0.2040555,344.8668,5.698415,340.901
0.1886156,-0.1284079,-0.08373272,-0.4794165,355.2383,14.79355,356.6538,0.06344159,-0.4233172,-0.2039796,344.9565,5.697591,340.8061
0.1996669,-0.1284964,-0.08374621,-0.4793596,355.2355,14.78772,356.6624,0.06346475,-0.4234392,-0.2039456,345.0569,5.6898,340.659
0.2106649,-0.1286626,-0.08374082,-0.4792649,355.2426,14.79205,356.6722,0.06345347,-0.4235007,-0.2038896,345.1517,5.534586,340.4973
0.2216453,-0.1288312,-0.0837374,-0.4791608,355.2434,14.79212,356.6986,0.06345808,-0.4235709,-0.2038359,345.2117,5.330411,340.3564
0.2329375,-0.1289864,-0.08372597,-0.4790642,355.2584,14.78904,356.7029,0.06348439,-0.4235897,-0.2038271,345.2447,5.331511,340.2481
0.2457542,-0.1291445,-0.08373578,-0.4789468,355.2469,14.77893,356.7209,0.06350174,-0.4235417,-0.2038131,345.1741,5.420039,340.1571
0.2554077,-0.1292778,-0.08372641,-0.4788677,355.2534,14.76649,356.7335,0.06350576,-0.4234114,-0.2037311,345.0598,5.510025,340.0918
0.2664854,-0.1294229,-0.08373766,-0.4787639,355.2437,14.75398,356.757,0.06348214,-0.4234084,-0.2037957,344.9527,5.490231,340.0637
0.2775278,-0.1295773,-0.08374357,-0.4786628,355.2436,14.73909,356.7687,0.06339145,-0.4233675,-0.2038096,344.9378,5.516334,340.0138
0.2883083,-0.1297281,-0.0837506,-0.4785595,355.2459,14.72286,356.799,0.06328341,-0.4233572,-0.2038039,344.966,5.45702,339.9924
0.2995117,-0.1298962,-0.08374846,-0.4784598,355.2627,14.70241,356.815,0.06306978,-0.4232594,-0.2038404,344.9737,5.284714,339.8782
0.3106172,-0.1300081,-0.08376481,-0.4783761,355.2564,14.68743,356.8367,0.0628489,-0.4231546,-0.2039559,344.9271,5.093319,339.7679
0.3218451,-0.1301341,-0.08380869,-0.4782676,355.2347,14.68465,356.8422,0.06255406,-0.4230171,-0.2041431,344.7946,4.86426,339.7191
0.3331464,-0.1302197,-0.08381405,-0.4782064,355.2509,14.68701,356.8541,0.06226299,-0.4228765,-0.2043141,344.6697,4.683613,339.71
0.3440121,-0.1303406,-0.08383109,-0.4781169,355.2482,14.66853,356.8625,0.06195801,-0.4226885,-0.2044757,344.513,4.564604,339.7407
0.355021,-0.1304981,-0.08381866,-0.4780374,355.2704,14.64225,356.8771,0.06164513,-0.4224812,-0.2045828,344.3954,4.506322,339.7604
0.366349,-0.1306118,-0.08385631,-0.477937,355.2494,14.63075,356.8965,0.06134263,-0.4222904,-0.2046522,344.3737,4.452363,339.7456
0.3776693,-0.1307573,-0.08385644,-0.4778672,355.2578,14.62659,356.9449,0.06106297,-0.4220665,-0.2046798,344.3772,4.35557,339.6877
0.3885047,-0.1308556,-0.08386175,-0.477822,355.2548,14.58054,356.9281,0.06081779,-0.4218104,-0.2047112,344.3984,4.297061,339.5971
0.399691,-0.1309368,-0.0838604,-0.4777799,355.2573,14.58693,356.9431,0.06058871,-0.421497,-0.2047809,344.4026,4.282663,339.4643
0.4106902,-0.1310164,-0.08386992,-0.4777372,355.2522,14.5828,356.9446,0.06034314,-0.4212015,-0.2048786,344.3958,4.173045,339.3568
0.4217021,-0.1311763,-0.08385968,-0.4776936,355.2591,14.58686,356.9688,0.0600886,-0.4209439,-0.2050106,344.4069,3.942611,339.2635
0.4329815,-0.1312337,-0.08389074,-0.4776575,355.2428,14.56112,356.9725,0.05981895,-0.4207022,-0.2050815,344.4568,3.704237,339.1752
0.4438868,-0.1313502,-0.08390412,-0.4776355,355.2337,14.54469,356.9916,0.05955796,-0.4204918,-0.2050967,344.5894,3.456738,339.1072
0.4555544,-0.131434,-0.08390908,-0.4776198,355.2412,14.53165,356.9996,0.05930293,-0.4202744,-0.2050675,344.7523,3.245701,339.0347
0.4663818,-0.1314976,-0.08392172,-0.4775942,355.2375,14.52827,357.0084,0.0590503,-0.4200741,-0.2049727,344.9514,3.11587,339.0056
0.4771702,-0.131591,-0.08391868,-0.4775747,355.2361,14.51298,357.0137,0.05882496,-0.4199226,-0.2049004,345.0885,3.055023,339.049
0.4884225,-0.1316669,-0.08392327,-0.4775463,355.2186,14.50511,357.0096,0.05853506,-0.4197617,-0.204825,345.1397,3.026733,339.1571
0.4997477,-0.1317672,-0.08390303,-0.4775421,355.1987,14.48624,357.0053,0.05823602,-0.4196757,-0.2047433,345.1093,3.034126,339.3109
0.5107636,-0.1318189,-0.0839143,-0.4775129,355.1918,14.4897,357.0134,0.0580216,-0.4196173,-0.2046881,345.0896,3.034948,339.3953
0.5220581,-0.1318865,-0.08392228,-0.4774929,355.1911,14.48809,357.0195,0.05788837,-0.4196172,-0.2047023,345.0424,3.072352,339.4478
0.5331875,-0.1319679,-0.08391945,-0.4775113,355.1871,14.4611,357.0179,0.05780902,-0.4195909,-0.2047459,345.0157,3.090222,339.4586
0.5437788,-0.1320581,-0.08391901,-0.4775204,355.177,14.45732,357.018,0.05773031,-0.4195741,-0.2048188,344.9831,3.062306,339.4462
0.5551742,-0.1321088,-0.08391578,-0.4775296,355.1794,14.45365,357.0341,0.05754091,-0.4195134,-0.2049141,344.9554,2.978702,339.4235
0.5662246,-0.1321816,-0.08390138,-0.4775548,355.1727,14.43659,357.0375,0.05729706,-0.4193478,-0.2050486,344.9095,2.800376,339.3331
0.577467,-0.1322424,-0.08389994,-0.4775663,355.156,14.43297,357.0412,0.05722858,-0.4192562,-0.2051882,344.8656,2.72152,339.2272
0.5884718,-0.132301,-0.08390361,-0.4775946,355.1319,14.42669,357.0507,0.05711429,-0.4191709,-0.2053214,344.8075,2.698527,339.1822
0.5996991,-0.1323444,-0.08390374,-0.4776101,355.1234,14.42954,357.0486,0.05701409,-0.4191488,-0.2054214,344.7697,2.702813,339.2329
0.6109785,-0.1323889,-0.08392377,-0.4776435,355.1009,14.4222,357.0605,0.05689346,-0.419154,-0.2055065,344.7249,2.695329,339.3341
0.6220115,-0.1324128,-0.0839396,-0.4776289,355.1085,14.43161,357.0486,0.0566808,-0.4191392,-0.2056309,344.6607,2.68134,339.474
0.6331123,-0.1324562,-0.083955,-0.4776549,355.1101,14.43161,357.0414,0.05655185,-0.4191864,-0.2057039,344.6024,2.696958,339.5902
0.6438739,-0.132488,-0.08398965,-0.4776753,355.1073,14.42697,357.032,0.05645883,-0.4192103,-0.205773,344.5446,2.74876,339.6821
0.6554508,-0.1325594,-0.08401011,-0.4777151,355.1416,14.4429,357.0067,0.05647906,-0.4192272,-0.205838,344.5465,2.817911,339.649
0.6664702,-0.1325484,-0.0840544,-0.4777122,355.1467,14.43778,357.0129,0.05650467,-0.4192386,-0.2058755,344.5306,2.822658,339.6197
0.6777862,-0.1325791,-0.08406876,-0.4777604,355.1841,14.44255,357.0056,0.05647314,-0.419246,-0.2059805,344.464,2.84442,339.62
0.688966,-0.1325662,-0.08410642,-0.4777594,355.1755,14.44044,357.0128,0.05643207,-0.419272,-0.2060514,344.401,2.856689,339.6394
0.699868,-0.1325613,-0.08414029,-0.4777645,355.1779,14.44578,357.0193,0.05634962,-0.4194108,-0.2061689,344.2682,2.92489,339.7604
0.7110028,-0.132555,-0.08417963,-0.4777643,355.1812,14.45289,357.012,0.05629016,-0.4195495,-0.2062065,344.2617,2.975679,339.9032
0.7218083,-0.132543,-0.08421084,-0.477782,355.1882,14.45569,357.0039,0.05627494,-0.4196738,-0.2062374,344.3363,3.00398,340.0214
0.7330231,-0.13255,-0.08422358,-0.4778533,355.2088,14.46106,356.9598,0.05633614,-0.4197531,-0.2063012,344.3514,3.007368,340.0337
0.7444074,-0.1325109,-0.08427522,-0.4778663,355.2182,14.47413,356.9594,0.0564716,-0.4197553,-0.2063482,344.3214,2.982605,339.927
0.755263,-0.1324808,-0.08432577,-0.4778589,355.2151,14.48776,356.9487,0.05662406,-0.419827,-0.2064367,344.2929,3.009415,339.8668
0.7665457,-0.132446,-0.08436058,-0.4778868,355.2501,14.49944,356.9308,0.05678456,-0.4198991,-0.2065051,344.2848,3.050634,339.7922
0.7775381,-0.132417,-0.08440793,-0.477881,355.2572,14.49979,356.9142,0.05696584,-0.4199859,-0.2065584,344.2766,3.147924,339.7293
1.110871,-0.1291932,-0.08968773,-0.474073,357.799,14.70051,356.2823,0.05730414,-0.4322454,-0.2014427,348.0211,10.03388,350.0421
1.116229,-0.1292406,-0.08982665,-0.4739183,357.9543,14.77316,356.3121,0.05806306,-0.4337643,-0.2015032,348.3355,10.56104,351.4401
1.146777,-0.1293344,-0.08994938,-0.4738509,358.1702,14.77485,356.4173,0.05936071,-0.4372441,-0.2007603,348.5816,12.32368,355.7721
1.180625,-0.1295271,-0.09012384,-0.4739442,358.4125,14.88872,356.4692,0.05902799,-0.438198,-0.2000121,347.9711,12.98521,357.7362
1.202053,-0.1295956,-0.09027029,-0.47406,358.5196,14.89782,356.4622,0.05860241,-0.4395365,-0.1986859,348.0213,13.63649,359.9369
1.22334,-0.1297719,-0.09047455,-0.4742198,358.6683,14.98642,356.5591,0.05796532,-0.440313,-0.197746,347.36,14.46713,1.595972
1.234117,-0.1298717,-0.09057784,-0.4743744,358.7537,14.99226,356.5907,0.05741084,-0.4408728,-0.1970764,346.8827,14.96146,2.809968
1.245245,-0.1299551,-0.09064125,-0.4744996,358.8353,14.9935,356.6007,0.05690453,-0.441317,-0.1964585,346.5899,15.34462,3.642319
1.255841,-0.1299744,-0.09070638,-0.4745107,358.8326,14.99071,356.5961,0.05643186,-0.4416177,-0.1958538,346.472,15.58946,3.993605
1.267248,-0.130101,-0.09081838,-0.4746996,358.9371,15.02369,356.6417,0.05596422,-0.4419008,-0.1952457,346.4431,15.76684,4.336186
1.277688,-0.1302023,-0.09092086,-0.4748233,358.9876,15.04261,356.647,0.05546959,-0.4422051,-0.1945899,346.4806,15.9243,4.760202
1.288748,-0.1302973,-0.09103415,-0.4750088,359.0861,15.02894,356.6506,0.05498578,-0.4424774,-0.193904,346.5233,16.17545,5.09278
1.299712,-0.1304104,-0.09120566,-0.475154,359.1896,15.04167,356.6817,0.05451206,-0.4427516,-0.1932045,346.476,16.51194,5.555009
1.310585,-0.1305294,-0.09132405,-0.4753526,359.3246,15.0149,356.612,0.05420814,-0.442991,-0.1925265,346.3594,16.95435,6.015255
1.321248,-0.1305864,-0.09147785,-0.4754464,359.3909,15.04669,356.6383,0.05444427,-0.4430593,-0.1924355,346.3728,17.09064,5.959668
1.332179,-0.1305878,-0.09153894,-0.4754917,359.4065,15.07603,356.6475,0.05460785,-0.4434672,-0.1913884,346.4202,17.81332,6.419552
1.343095,-0.1305977,-0.09158942,-0.4755429,359.4107,15.1562,356.6656,0.05482324,-0.4438202,-0.1902354,346.3005,18.80716,6.978487
1.354522,-0.1306016,-0.09158639,-0.4756377,359.4275,15.20781,356.6286,0.05505545,-0.4441789,-0.1892986,345.9714,19.87675,7.656852
1.365584,-0.130651,-0.0916447,-0.4759349,359.4688,15.40038,356.6366,0.05526959,-0.4444641,-0.1884855,345.6954,20.66444,8.139847
1.37612,-0.1306155,-0.09163953,-0.4761334,359.4813,15.50702,356.6124,0.05557626,-0.444718,-0.1878337,345.4541,21.151,8.490321
1.387449,-0.1305034,-0.09164519,-0.4763299,359.4125,15.69063,356.7052,0.05595599,-0.4449399,-0.1872515,345.3214,21.52692,8.637207
1.398402,-0.1304432,-0.09150925,-0.4765526,359.3631,15.85172,356.7092,0.05641371,-0.4450756,-0.1867995,345.4575,21.8483,8.464534
1.409406,-0.1303683,-0.09120829,-0.4767804,359.2259,16.09268,356.6918,0.05700524,-0.4452311,-0.1863889,345.7348,22.18964,8.183158
1.421126,-0.1301845,-0.09084491,-0.4770418,358.8971,16.34837,356.7175,0.05772788,-0.4454764,-0.1859787,346.2736,22.45971,7.854307
1.431759,-0.1300248,-0.09033625,-0.4773957,358.5868,16.61957,356.6794,0.05848754,-0.4456939,-0.1855071,346.799,22.79203,7.586538
1.443243,-0.1298166,-0.089789,-0.4777245,358.1599,16.99807,356.7423,0.05920808,-0.4458886,-0.1851279,347.1034,23.16976,7.384196
1.453791,-0.1296011,-0.08921953,-0.478144,357.7642,17.36584,356.813,0.05993062,-0.4461987,-0.1848836,347.2287,23.50339,7.356747
1.465095,-0.1294486,-0.08854484,-0.4786119,357.3383,17.79508,356.8367,0.06058128,-0.4465514,-0.1846257,347.2788,23.82278,7.497717
1.476135,-0.1292626,-0.08788815,-0.4791614,356.9258,18.14755,356.8399,0.06134508,-0.4468569,-0.1844719,347.2291,24.16915,7.723364
1.487595,-0.1291426,-0.08714531,-0.4797722,356.5815,18.58761,356.8911,0.06218468,-0.4471585,-0.1842987,347.1927,24.5464,7.919886
1.498666,-0.1289935,-0.08651165,-0.4803828,356.1762,18.96951,356.9304,0.06318952,-0.4474423,-0.1840459,347.1977,25.07356,8.165832
1.509867,-0.1289082,-0.08594823,-0.481023,355.7796,19.32144,356.9343,0.06423599,-0.4477181,-0.1837606,347.2466,25.64242,8.419423
1.520725,-0.1288651,-0.08534504,-0.4817567,355.4986,19.66395,356.9839,0.06528309,-0.4478894,-0.1835599,347.2511,26.1258,8.700965
1.53196,-0.1288924,-0.08473,-0.4824698,355.2064,20.02485,356.9656,0.06636544,-0.4478935,-0.1835459,347.1829,26.48902,8.86102
1.543069,-0.1288561,-0.08416904,-0.4831823,354.8226,20.29882,356.9671,0.06748113,-0.4477963,-0.1835943,347.1486,26.80284,8.902362
1.554228,-0.1288675,-0.0835857,-0.4838334,354.3787,20.66021,356.9582,0.0686239,-0.4474675,-0.1837396,347.2311,27.04713,8.788724
1.565303,-0.1288554,-0.08283924,-0.4846142,353.9709,21.00276,356.9794,0.06975864,-0.4471149,-0.1839444,347.4305,27.22138,8.624184
1.576361,-0.1288807,-0.08215602,-0.4852881,353.3916,21.42007,356.9292,0.07092809,-0.4466523,-0.1842619,347.7442,27.25952,8.428267
1.587397,-0.1288251,-0.08144183,-0.4861026,352.8052,21.8537,357.0123,0.0720735,-0.4461119,-0.1845973,347.9359,27.35092,8.298226
1.598638,-0.1288226,-0.08060838,-0.4870309,352.3282,22.29017,357.0092,0.07318475,-0.4454052,-0.1850848,347.9106,27.49729,8.295576
1.609756,-0.128821,-0.07984792,-0.4879056,351.7305,22.8194,357.0221,0.0742963,-0.4444889,-0.1856666,347.7555,27.6977,8.334441
1.620818,-0.1287455,-0.07901339,-0.4889092,351.13,23.37689,357.15,0.0755,-0.4435211,-0.1862872,347.6231,27.89639,8.333076
1.631962,-0.1286722,-0.07817478,-0.4899183,350.4928,23.94538,357.2071,0.07686597,-0.4423925,-0.1869406,347.4672,28.13269,8.331999
1.643757,-0.1286249,-0.07728797,-0.4909997,349.8884,24.60889,357.2354,0.07838663,-0.4411508,-0.1875954,347.3028,28.48096,8.269423
1.654486,-0.1285523,-0.07645898,-0.4921636,349.2879,25.23981,357.2502,0.08000463,-0.4397382,-0.1883419,347.0865,28.87307,8.165306
1.665288,-0.1285005,-0.07566337,-0.4933241,348.7002,25.90948,357.2836,0.08166263,-0.4383768,-0.1890538,346.9532,29.18628,8.120075
1.676541,-0.1284327,-0.07500413,-0.4944958,348.0722,26.55483,357.3091,0.08352849,-0.4369394,-0.1897476,346.8422,29.53852,8.1005
1.68784,-0.1284576,-0.07433057,-0.4956875,347.5576,27.24508,357.2959,0.08545061,-0.4353955,-0.1905041,346.6161,29.97208,8.038408
1.698757,-0.1284672,-0.0737529,-0.497017,347.1854,27.80792,357.2975,0.08753688,-0.4337536,-0.1913122,346.3171,30.47956,7.962741
1.709839,-0.1285506,-0.07324325,-0.4982228,346.8149,28.46307,357.2589,0.08974695,-0.4320651,-0.1921327,346.0569,30.96012,7.897557
1.720996,-0.1285929,-0.07273698,-0.4995365,346.5646,28.99303,357.2386,0.09203785,-0.4304137,-0.1929407,345.7883,31.4951,7.904688
1.732385,-0.128693,-0.07232567,-0.5006611,346.2082,29.60705,357.1447,0.09447655,-0.4287387,-0.1937683,345.413,32.20182,8.033163
1.743309,-0.1287029,-0.07195781,-0.5017865,345.843,30.16868,357.127,0.09686407,-0.4270782,-0.1946305,345.0029,32.93487,8.297453
1.754297,-0.1287862,-0.07163326,-0.5029124,345.5875,30.70428,357.0406,0.09926882,-0.4253192,-0.1955692,344.4579,33.65441,8.684086
1.765622,-0.1288779,-0.07138726,-0.503993,345.3538,31.28962,356.9887,0.1016968,-0.4234754,-0.1965558,343.8547,34.36814,8.981894
1.776763,-0.1289399,-0.07126411,-0.5051183,345.2461,31.76518,356.9752,0.1042539,-0.4214916,-0.1976504,343.3049,35.11971,9.183743
1.787876,-0.1290433,-0.0711795,-0.506117,345.1358,32.29002,356.9019,0.1069242,-0.4194563,-0.1987958,342.8973,35.87456,9.283361
1.798866,-0.1291733,-0.07117874,-0.5070737,345.1745,32.80179,356.8726,0.1096276,-0.4174157,-0.1999429,342.4889,36.64609,9.379861
1.810087,-0.1292446,-0.07123988,-0.5079851,345.2174,33.2519,356.8513,0.1123329,-0.4154305,-0.2011415,342.0495,37.47829,9.604288
1.821411,-0.1293062,-0.07130035,-0.5088627,345.3013,33.73434,356.8115,0.1149736,-0.4134682,-0.2024068,341.5405,38.35534,10.00282
1.832492,-0.1293547,-0.0715027,-0.5095988,345.4394,34.27666,356.7368,0.117711,-0.4114446,-0.2038892,340.748,39.41222,10.57681
1.843451,-0.1293574,-0.07172687,-0.5103436,345.6645,34.85006,356.713,0.1203588,-0.4094325,-0.2053573,339.6848,40.63824,11.41719
1.854583,-0.1292961,-0.07199657,-0.5111296,346.0332,35.33665,356.6639,0.1228785,-0.4075365,-0.2068453,338.1608,42.0269,12.86857
1.86575,-0.129202,-0.07238423,-0.5117503,346.3316,35.92567,356.6306,0.1252629,-0.4058304,-0.2082396,336.3296,43.33196,14.68226
1.876877,-0.1290179,-0.07289144,-0.5123926,346.7845,36.44018,356.5776,0.127607,-0.4043007,-0.2096105,334.2129,44.64726,16.83558
1.88824,-0.1288203,-0.07350715,-0.5129463,347.37,37.06688,356.5311,0.1299779,-0.402647,-0.2110092,332.2296,45.87585,18.65204
1.899049,-0.1285591,-0.07414936,-0.5135664,348.0667,37.62465,356.4898,0.1324681,-0.4007297,-0.212516,330.7001,47.03751,19.70896
1.910086,-0.1281981,-0.07499261,-0.5139966,348.7951,38.22023,356.4719,0.1351057,-0.3986649,-0.2142128,330.0171,48.05181,19.76193
1.921533,-0.1278337,-0.07576106,-0.5144371,349.5888,38.75358,356.4341,0.1378802,-0.3967056,-0.2159275,329.9395,48.81439,19.45137
1.932398,-0.1273878,-0.07666077,-0.5146953,350.3565,39.39595,356.4491,0.1409152,-0.3949048,-0.2176288,330.4774,49.33924,18.71522
1.943521,-0.1269268,-0.07751211,-0.5150882,351.1219,39.95955,356.4769,0.1439528,-0.3932566,-0.2192264,330.8094,49.92534,18.18909
1.954781,-0.126355,-0.0784309,-0.5153131,351.7113,40.57514,356.4393,0.1469993,-0.3918808,-0.2207948,331.0047,50.52999,17.77842
1.965593,-0.1258519,-0.07915369,-0.515422,352.2102,41.22071,356.4425,0.1500524,-0.3907608,-0.2223199,330.9106,51.20835,17.66796
1.976965,-0.1253612,-0.07965893,-0.5156329,352.6047,41.82493,356.3995,0.1531563,-0.3896805,-0.223878,330.6043,51.98413,17.75507
1.988064,-0.1249212,-0.07992339,-0.5158138,352.8434,42.47213,356.3413,0.1563415,-0.3887393,-0.2255454,330.0198,52.95446,17.922
1.999225,-0.1244051,-0.08025646,-0.5160942,352.9651,43.06704,356.3972,0.15952,-0.3878463,-0.2272668,329.29,53.9744,18.13344
2.010406,-0.1239978,-0.08063435,-0.5163954,353.1985,43.68623,356.4091,0.1626686,-0.3871741,-0.2290403,328.493,54.97358,18.48924
2.021531,-0.1237452,-0.08097058,-0.5167378,353.5238,44.33833,356.341,0.1658115,-0.3865144,-0.2308926,327.9019,55.85104,18.68301
2.032469,-0.1234347,-0.0813932,-0.5171233,353.844,44.96677,356.3819,0.1690834,-0.3859956,-0.232873,327.7422,56.63878,18.4672
2.044033,-0.1231905,-0.0817481,-0.5175518,354.1749,45.51274,356.3691,0.1723999,-0.3856038,-0.2348487,327.8593,57.34852,18.09574
2.054814,-0.1229445,-0.08210213,-0.517953,354.5381,46.07229,356.4507,0.1757903,-0.385459,-0.2368497,328.2422,57.86527,17.60303
2.065883,-0.122726,-0.08245499,-0.5182875,354.9085,46.61576,356.4785,0.179291,-0.3855579,-0.2388313,328.7419,58.32704,17.02926
2.076944,-0.1224642,-0.08284459,-0.5186357,355.3024,47.14796,356.5738,0.1828391,-0.3858095,-0.2407558,329.2124,58.83023,16.59775
