Time (s):,Headset position x:,Headset position y:,Headset position z:,Headset rotation x:,Headset rotation y:,Headset rotation z:,Right Hand Position x:,Right Hand Position y:,Right Hand Position z:,Right Hand rotation x:,Right Hand rotation y:,Right Hand rotation z:
0.01101766,-0.003716886,-0.01125626,0.008872064,8.1099,0.7153705,4.151803,0.02593683,-0.6315258,0.1079575,345.0917,345.692,30.52055
0.02230667,-0.003939513,-0.01117004,0.008680067,8.040361,0.6879336,4.160315,0.02567366,-0.6311457,0.1075577,344.1184,345.8078,30.48067
0.03320344,-0.004082425,-0.01111553,0.008584023,8.032454,0.6977676,4.150525,0.02532088,-0.6307234,0.1073964,343.1837,346.0943,30.88642
0.04390849,-0.004234386,-0.0110282,0.008416248,8.015964,0.689716,4.16043,0.02501637,-0.6301664,0.1077074,342.4131,346.665,31.37941
0.05578431,-0.004421997,-0.01095237,0.008250722,7.992,0.7042996,4.137299,0.02469772,-0.6296454,0.1078416,341.9537,347.0505,31.57417
0.06675134,-0.00452866,-0.01088923,0.008097096,7.971944,0.6912719,4.150808,0.02442316,-0.6291797,0.1081252,341.6971,347.5446,31.54178
0.07763588,-0.004766782,-0.01075391,0.007762606,7.877409,0.6920012,4.148918,0.0241366,-0.628881,0.1084425,341.769,347.9739,31.4712
0.08866008,-0.004902709,-0.01062578,0.007554373,7.831362,0.6809556,4.156045,0.02396987,-0.6288315,0.1083165,342.3054,348.1661,31.44831
0.1001192,-0.005007044,-0.01052673,0.007482045,7.854287,0.7018902,4.150258,0.02398938,-0.6288205,0.1082341,343.0141,348.1676,31.39559
0.1119387,-0.005140142,-0.01040201,0.007307115,7.822958,0.7110624,4.179929,0.02353164,-0.6289191,0.1088913,343.8513,348.0064,30.92193
0.1219116,-0.005298353,-0.01024366,0.007059652,7.754735,0.6844097,4.174689,0.02316241,-0.6294246,0.1083439,344.4194,346.76,30.97367
0.1327432,-0.005472887,-0.01011231,0.006805719,7.689595,0.6685114,4.195794,0.02321684,-0.6295588,0.1083993,345.3755,345.8857,31.04813
0.1438431,-0.005600539,-0.01000173,0.006614591,7.651781,0.6399644,4.180624,0.02341746,-0.629263,0.1088472,345.5676,346.5775,30.85246
0.1547652,-0.005723588,-0.009933478,0.006467864,7.642997,0.651301,4.193168,0.0236449,-0.6288596,0.1090876,345.1174,347.2339,30.86344
0.1665403,-0.005831138,-0.009861673,0.006258553,7.613295,0.638957,4.201883,0.0239421,-0.6283109,0.1093278,344.8161,347.4977,30.66452
0.1773034,-0.005920082,-0.00981883,0.006131207,7.604308,0.6481881,4.195532,0.02422469,-0.6279172,0.1096593,344.9189,347.7545,30.35993
0.1884533,-0.006010552,-0.009744255,0.005932677,7.595351,0.6383157,4.18563,0.02446061,-0.6276708,0.1100252,345.1631,348.0913,30.13652
0.1994988,-0.006156665,-0.009626638,0.005661364,7.55073,0.6521839,4.182466,0.02469125,-0.627517,0.1103004,345.425,348.3058,29.93408
0.2106297,-0.006257284,-0.009517131,0.005464696,7.532603,0.6603494,4.183837,0.02491948,-0.6275679,0.110527,345.7413,348.4158,29.76165
0.2222302,-0.006463022,-0.009372626,0.00513588,7.42057,0.6784459,4.172948,0.02513401,-0.6277321,0.1106976,345.9933,348.3964,29.65468
0.2327643,-0.006522623,-0.009270131,0.004999978,7.43459,0.6706061,4.190764,0.02532938,-0.6279055,0.1108443,346.1295,348.4304,29.60326
0.2442592,-0.006563469,-0.009220766,0.004911854,7.443947,0.6616516,4.181358,0.02549029,-0.6280754,0.111009,346.2206,348.5313,29.66213
0.2556404,-0.006724447,-0.009101861,0.004599279,7.400402,0.6889582,4.23513,0.02563527,-0.6281595,0.1111407,346.2503,348.6372,29.73524
0.2673282,-0.006846122,-0.009035209,0.004374775,7.363866,0.708352,4.238436,0.02578665,-0.6280164,0.1111503,346.1713,348.7792,29.62857
0.2776163,-0.00691301,-0.008959291,0.004156396,7.348339,0.7190219,4.277656,0.0259608,-0.6278276,0.1111851,346.1672,348.9215,29.47484
0.2883407,-0.006965779,-0.008907593,0.004001655,7.331163,0.7237965,4.275791,0.02617349,-0.627525,0.1112605,346.2238,349.0906,29.23207
0.2994451,-0.00709471,-0.008821517,0.003773709,7.286788,0.7580162,4.268796,0.02644075,-0.6272098,0.111369,346.2968,349.3181,28.98018
0.3105389,-0.007178418,-0.008726596,0.003555254,7.246161,0.7554602,4.273994,0.0267886,-0.6268558,0.1115113,346.4152,349.6246,28.68979
0.3220902,-0.007245343,-0.008646819,0.003422696,7.25042,0.7787122,4.296585,0.0270641,-0.62668,0.1116641,346.7648,349.954,28.49493
0.3333619,-0.00732246,-0.008568449,0.003218499,7.197612,0.7539201,4.29586,0.02724689,-0.6265948,0.1117418,347.1307,350.1577,28.34018
0.343894,-0.007414497,-0.008511557,0.003039118,7.147864,0.7542616,4.303496,0.02742255,-0.6265464,0.1118024,347.5278,350.2424,28.14507
0.3552655,-0.007425662,-0.008460608,0.002944619,7.160232,0.7297581,4.293108,0.02760779,-0.6265453,0.1118888,347.8128,350.3078,27.9808
0.3663355,-0.007484592,-0.008365425,0.002797281,7.145716,0.7088388,4.273098,0.02782727,-0.6265726,0.1120552,348.0499,350.4498,27.80748
0.3773912,-0.0075867,-0.008256446,0.0025916,7.084424,0.6935723,4.262904,0.0280869,-0.6265478,0.1122967,348.1925,350.721,27.59937
0.3884151,-0.007664084,-0.008116607,0.002419538,7.071444,0.6719441,4.221161,0.02837718,-0.6263521,0.112596,348.1925,351.1043,27.3554
0.4000281,-0.007777892,-0.007938424,0.002170623,6.993176,0.6163746,4.160775,0.02870243,-0.6259591,0.112819,348.0509,351.508,27.05712
0.4112662,-0.007846165,-0.007837695,0.002033822,6.947056,0.6076123,4.15247,0.02908018,-0.6254438,0.1130931,347.7998,352.0875,26.52419
0.4219161,-0.007897984,-0.007743028,0.001896195,6.910139,0.599044,4.172109,0.02940634,-0.624958,0.1135122,347.7881,352.7762,25.83436
0.432911,-0.007900421,-0.00761543,0.001732198,6.905306,0.541087,4.177451,0.02967715,-0.6246922,0.1139157,348.0475,353.2892,25.46783
0.4441084,-0.007990126,-0.007516888,0.001565302,6.828294,0.54057,4.184552,0.02985873,-0.6248001,0.1142855,348.6178,353.5644,25.41469
0.4553931,-0.008055261,-0.007390646,0.001402314,6.786786,0.5155022,4.138252,0.0300432,-0.6249545,0.1146236,349.043,353.7281,25.34055
0.4663889,-0.008070041,-0.007335078,0.00130051,6.760457,0.5084348,4.16636,0.03024632,-0.6254277,0.1147302,349.0943,353.7106,25.77558
0.4775502,-0.008104589,-0.007262491,0.001204266,6.734756,0.5167592,4.161387,0.03044059,-0.6260176,0.1146517,348.8761,353.58,26.58506
0.4888659,-0.008152399,-0.007155839,0.00104889,6.687135,0.5193058,4.154747,0.03056605,-0.6267612,0.1144749,348.1399,353.3195,27.78556
0.4994655,-0.008172234,-0.00708403,0.000922122,6.649972,0.5267007,4.158891,0.03066325,-0.6270953,0.1144629,347.6752,353.1053,28.3459
0.5105687,-0.008166421,-0.0070057,0.0008146752,6.680148,0.5167235,4.129784,0.0307249,-0.6271442,0.1143468,347.127,352.8774,28.45158
0.52244,-0.00818041,-0.006923688,0.0006443274,6.622559,0.5164771,4.148002,0.03085954,-0.6270348,0.1142028,346.5317,352.6712,28.20646
0.5328535,-0.008189195,-0.006822563,0.0004884572,6.587874,0.5086876,4.148076,0.03105331,-0.6269584,0.1141904,345.9798,352.4962,28.09446
0.5437309,-0.008194778,-0.006712112,0.0003313837,6.561595,0.5032037,4.129562,0.03101546,-0.6270817,0.1144733,345.9976,352.4613,28.71781
0.5555845,-0.00817016,-0.006639365,0.0001849089,6.525082,0.4838806,4.133803,0.03072139,-0.627624,0.1149097,346.5006,352.591,29.82676
0.566852,-0.008160662,-0.006572426,6.771352E-05,6.509181,0.4916116,4.139244,0.0301922,-0.6285119,0.1155033,347.1191,352.7578,31.31221
0.5775741,-0.008172665,-0.006498537,-5.520179E-05,6.491745,0.5010095,4.136247,0.02977484,-0.6291168,0.1157347,346.8147,352.6083,32.40681
0.588864,-0.008141783,-0.006389637,-0.0002644351,6.452881,0.4638095,4.125953,0.02931826,-0.6293854,0.1154764,345.6738,352.0287,32.89411
0.6000301,-0.00812545,-0.006313539,-0.0003910156,6.431897,0.4575062,4.13103,0.02924185,-0.6294314,0.1151607,344.5615,351.5501,32.79583
0.6110569,-0.008120373,-0.006251859,-0.000497309,6.405544,0.4689212,4.139413,0.02966863,-0.6291471,0.1149273,343.644,351.3248,31.8626
0.6218982,-0.008088405,-0.006177148,-0.0005976938,6.401439,0.4660027,4.138819,0.03002503,-0.6287441,0.115172,342.9157,351.2876,30.9927
0.6330836,-0.008069184,-0.006104073,-0.0007198969,6.37124,0.4637483,4.138483,0.02997321,-0.6285731,0.1157783,342.0251,351.4618,30.86789
0.6443257,-0.008027215,-0.006043498,-0.0008105896,6.362653,0.4651422,4.140639,0.02978912,-0.6287171,0.1164346,341.3006,351.6975,31.29253
0.655431,-0.007997297,-0.005960624,-0.0009667428,6.316347,0.4742356,4.150491,0.02971145,-0.6291152,0.1169719,340.9648,351.8276,31.75952
0.6666514,-0.007964019,-0.005905687,-0.001078064,6.271076,0.4836876,4.168344,0.02970528,-0.6295242,0.1175324,340.902,351.9462,31.91595
0.6776526,-0.007925037,-0.005843182,-0.001154947,6.27316,0.4747548,4.145946,0.02968611,-0.6297023,0.117903,340.889,352.1136,31.94879
0.6886185,-0.007862158,-0.005808111,-0.001212982,6.264628,0.4700037,4.162934,0.02966122,-0.6297101,0.1182298,341.0093,352.3516,31.75107
0.7002022,-0.007824204,-0.005756687,-0.001298017,6.233364,0.4699647,4.15225,0.02958276,-0.6297507,0.1185364,340.9358,352.2976,31.4938
0.7107889,-0.007784569,-0.005692757,-0.001372406,6.224338,0.4928316,4.156226,0.02942696,-0.6298589,0.1186957,340.3981,352.0172,31.30302
0.7227677,-0.007719521,-0.005654381,-0.001426093,6.218906,0.4817329,4.15,0.02923745,-0.6301423,0.1188911,339.6032,351.9661,31.41184
0.7328001,-0.007661458,-0.005598384,-0.001504741,6.205301,0.4753177,4.155738,0.02883365,-0.6306121,0.1190889,339.1282,351.8809,31.67075
0.7492304,-0.007579222,-0.005530336,-0.001587261,6.194167,0.477461,4.170321,0.02838933,-0.6312336,0.1191112,338.984,351.6784,32.09708
0.7580683,-0.007536191,-0.005491558,-0.001638417,6.180393,0.4812044,4.183756,0.0280947,-0.6316581,0.1190308,338.7535,351.5384,32.27368
0.7661934,-0.007487419,-0.005445514,-0.001687351,6.176613,0.4899167,4.199731,0.02790631,-0.632163,0.1188491,338.6839,351.292,32.44701
0.7777627,-0.007399135,-0.005414721,-0.001754033,6.119523,0.5010064,4.218592,0.02765391,-0.6327209,0.1186992,339.1558,351.1396,32.69075
0.7884504,-0.00736563,-0.005365893,-0.001777194,6.143447,0.5057688,4.192624,0.02749533,-0.6330914,0.1187742,339.4435,351.275,32.78316
0.7995656,-0.007307523,-0.005329306,-0.001815725,6.132204,0.5060474,4.203642,0.02730522,-0.6334607,0.118791,339.5964,351.4141,32.87316
0.8107138,-0.00724212,-0.00528037,-0.001871371,6.100613,0.5091212,4.202037,0.02714394,-0.6337349,0.118741,339.6163,351.3727,33.07468
0.8221911,-0.007193927,-0.005250999,-0.001904859,6.090037,0.5055257,4.200264,0.0269408,-0.6337703,0.1185582,339.389,351.3322,33.1622
0.8332645,-0.007127341,-0.005213607,-0.001952791,6.072283,0.5036433,4.196967,0.02679158,-0.6338179,0.1184432,339.1395,351.2153,33.15237
0.8443814,-0.007069573,-0.005187369,-0.001993428,6.046007,0.5031518,4.186521,0.02673444,-0.6339316,0.1183537,339.2246,351.1382,33.39172
0.855347,-0.007012397,-0.005138722,-0.002033741,6.044236,0.4959045,4.172983,0.02668652,-0.6340067,0.1184274,339.2932,351.2132,33.6513
0.8665071,-0.006933567,-0.005103074,-0.002069656,6.02053,0.4807389,4.178932,0.02655176,-0.6341243,0.118475,339.2833,351.2477,33.56936
0.8782359,-0.006866019,-0.005062373,-0.002106101,5.996477,0.4635015,4.170078,0.02643006,-0.6344557,0.1183416,339.4405,350.8938,33.48492
0.8892586,-0.006762682,-0.005023259,-0.002137592,5.973857,0.4487284,4.193651,0.02630579,-0.6349753,0.1181916,339.6827,350.7621,33.62443
0.8999722,-0.006719521,-0.004994059,-0.002149174,5.96461,0.4508601,4.175069,0.02610951,-0.6353822,0.1181602,339.9265,350.5553,33.63667
0.9115155,-0.006655056,-0.004967959,-0.002167376,5.961574,0.4545204,4.184988,0.02615615,-0.6354327,0.1181754,339.7621,350.4703,33.65464
0.9223258,-0.006558914,-0.004935549,-0.00219533,5.944567,0.4544268,4.188491,0.02621055,-0.635043,0.1182238,339.6133,350.795,33.60654
0.9334561,-0.0064703,-0.00492283,-0.0022183,5.917876,0.4698994,4.19429,0.02620657,-0.6350096,0.1182976,339.5137,350.8429,33.58557
0.9439803,-0.006404332,-0.00490915,-0.002228739,5.910462,0.4776136,4.191653,0.02621488,-0.6348922,0.1185147,339.3159,351.0998,33.60119
0.955267,-0.006328151,-0.004883791,-0.002239435,5.907187,0.4716448,4.183765,0.02622634,-0.634842,0.1186407,339.2921,351.2425,33.59357
0.9664807,-0.00626808,-0.004863868,-0.002239325,5.896579,0.4823033,4.181281,0.02616962,-0.634859,0.1185347,339.0811,350.9752,33.38923
0.9820014,-0.006141246,-0.004822418,-0.002218983,5.870412,0.4769708,4.164237,0.02598196,-0.63498,0.118453,339.1405,350.8849,33.4679
0.9925849,-0.006052364,-0.004805474,-0.002201843,5.851862,0.4662931,4.173629,0.02584258,-0.6352221,0.1183209,339.2166,350.7232,33.50274
1.001216,-0.006013575,-0.004749398,-0.00220624,5.878532,0.458846,4.156788,0.02577314,-0.6353332,0.1182979,339.2703,350.7202,33.52547
1.010686,-0.005976316,-0.004749134,-0.00218406,5.865753,0.4655128,4.158627,0.02558084,-0.6355901,0.1181435,339.2791,350.3984,33.40057
1.021792,-0.005856593,-0.004737402,-0.002156237,5.840364,0.4522013,4.139564,0.02565795,-0.6353908,0.1179183,338.8721,350.3191,33.42934
1.032698,-0.005793747,-0.004712687,-0.002144143,5.840566,0.4601172,4.119862,0.02565763,-0.6351714,0.1179949,338.5782,350.4208,33.48424
1.044122,-0.005702679,-0.004688445,-0.002133565,5.833056,0.462979,4.103743,0.02574191,-0.63491,0.1180514,338.2311,350.4424,33.3963
1.054901,-0.005617284,-0.004654919,-0.002128116,5.828807,0.4661427,4.080376,0.02576116,-0.6346754,0.1180298,338.2547,350.5377,33.37695
1.065942,-0.005527403,-0.004639781,-0.002112362,5.813257,0.4762422,4.068025,0.02582273,-0.6344622,0.1179861,338.1771,350.5638,33.21312
1.077227,-0.005436175,-0.004620338,-0.002105198,5.802814,0.4812883,4.049224,0.02584381,-0.6343703,0.1178905,338.1088,350.5856,33.20478
1.088384,-0.005354803,-0.004596376,-0.002087018,5.790271,0.5136055,4.040256,0.02582514,-0.6345482,0.1178945,338.3639,350.4363,33.14211
1.099296,-0.005278565,-0.004543668,-0.002085175,5.805007,0.5185795,4.02272,0.02577488,-0.6347582,0.1177276,338.4933,350.2205,33.06499
1.110721,-0.005181517,-0.004555638,-0.002054394,5.769815,0.5378302,4.046557,0.02575186,-0.6347867,0.1178277,338.4716,350.3484,33.23225
1.121859,-0.005076688,-0.004522594,-0.002029155,5.760402,0.5631332,4.028985,0.02569791,-0.6348296,0.1178507,338.3402,350.4464,33.28053
1.132517,-0.004981041,-0.004524145,-0.002000697,5.740027,0.5880036,4.027156,0.02567521,-0.6347262,0.1178286,338.2719,350.4698,33.25106
1.151071,-0.004843327,-0.004499061,-0.001974552,5.741136,0.6060131,4.025903,0.02572417,-0.6344231,0.1176662,338.2761,350.4148,32.95002
1.158812,-0.004777417,-0.004469195,-0.001966491,5.750069,0.6155329,4.00145,0.02572845,-0.6343825,0.1175841,338.3677,350.4388,32.89317
1.166018,-0.004702671,-0.004459932,-0.001943347,5.737764,0.6477275,3.991409,0.02575213,-0.63436,0.1175473,338.4432,350.3704,32.80524
1.1772,-0.004633494,-0.004437785,-0.001946774,5.743786,0.6307036,3.993194,0.0258094,-0.6344985,0.1175457,338.5563,350.284,32.77459
1.189321,-0.004532077,-0.00441257,-0.001930691,5.726989,0.6284516,3.980224,0.02586768,-0.6347257,0.1175663,338.7102,350.1859,32.77849
1.199742,-0.004424963,-0.004376703,-0.00191782,5.716118,0.6257601,3.965866,0.02587298,-0.635134,0.1177336,338.841,350.2102,32.90036
1.211162,-0.004318506,-0.004343264,-0.001903167,5.700884,0.6249554,3.959621,0.02581277,-0.6355197,0.117944,339.0601,350.2727,33.06816
1.221954,-0.004180219,-0.004303173,-0.001887947,5.673778,0.6150363,3.936517,0.02582181,-0.6353514,0.1179305,338.9253,350.2965,33.04224
1.232515,-0.004138511,-0.004275499,-0.001891059,5.681364,0.6259232,3.938931,0.02585499,-0.6350726,0.1178947,338.8005,350.3016,32.9818
1.244289,-0.003997379,-0.004238169,-0.001866034,5.630664,0.6578657,3.941163,0.02596272,-0.6347983,0.1179399,338.6943,350.399,32.79987
1.255351,-0.003926724,-0.004201237,-0.00187743,5.633961,0.6506879,3.938558,0.0259744,-0.6345611,0.1179401,338.7418,350.4488,32.69684
1.266537,-0.003863357,-0.004150179,-0.001895618,5.641408,0.6499943,3.925651,0.02606482,-0.6341932,0.1178424,338.7727,350.4473,32.47614
1.277343,-0.003782425,-0.00409882,-0.001904744,5.631991,0.6670408,3.923589,0.02615894,-0.6339993,0.1176706,338.8464,350.3717,32.2883
1.288262,-0.003671713,-0.004056662,-0.001911452,5.60497,0.675055,3.923317,0.02626372,-0.6338993,0.1174398,339.0772,350.1602,32.0228
1.299707,-0.003605909,-0.004015038,-0.001924831,5.602821,0.6793913,3.917956,0.02632628,-0.633886,0.1173158,339.2437,349.9507,31.78547
1.310616,-0.0035217,-0.003971605,-0.00193486,5.590963,0.6961568,3.91432,0.02638444,-0.6342224,0.1173121,338.9504,349.6971,31.85266
1.321807,-0.003437646,-0.003939592,-0.001945842,5.576143,0.6927339,3.909236,0.02629923,-0.6343434,0.1174989,339.0336,349.6765,31.88875
1.333128,-0.003335108,-0.003912512,-0.001949452,5.555854,0.7114452,3.91856,0.02629157,-0.6342891,0.1176593,338.9311,349.7762,31.82592
1.344307,-0.003271688,-0.003901927,-0.001965859,5.558972,0.6974264,3.916564,0.02630824,-0.6339781,0.1176034,338.5046,349.6929,31.51039
1.355279,-0.003175665,-0.003892066,-0.001967377,5.542884,0.7079204,3.907518,0.02633879,-0.6334876,0.1173079,338.0252,349.4291,31.07625
1.366116,-0.003135841,-0.00385046,-0.001989191,5.564702,0.7190614,3.892258,0.02638653,-0.6328766,0.1168379,337.8447,349.1067,30.33213
1.377358,-0.003053777,-0.00381194,-0.002001166,5.552336,0.7257858,3.870542,0.02700056,-0.6322402,0.1169397,337.9997,349.3211,30.38573
1.388345,-0.002997357,-0.003797574,-0.002016768,5.534668,0.7315661,3.886309,0.02708007,-0.6319627,0.1173341,338.3979,350.9526,30.94472
1.399479,-0.002971556,-0.003771122,-0.00203752,5.532413,0.7366046,3.886774,0.02691115,-0.6316622,0.1177412,339.295,351.2117,30.99001
1.41102,-0.002898876,-0.003731206,-0.002061067,5.522038,0.7397538,3.895715,0.02696004,-0.6314179,0.1180159,340.1049,351.2113,30.3322
1.421994,-0.002868243,-0.003706671,-0.002084798,5.519816,0.7444774,3.893215,0.02724991,-0.6313367,0.1182114,340.331,351.2615,29.77009
1.432657,-0.002790723,-0.0036851,-0.002100086,5.502655,0.7585307,3.89404,0.02765226,-0.6316075,0.1184451,340.1088,351.3048,29.72815
1.443822,-0.002728757,-0.003671668,-0.002110424,5.503732,0.76842,3.910221,0.02787813,-0.632027,0.1187526,339.7701,351.3156,30.13967
1.45542,-0.00267148,-0.003670235,-0.002114534,5.493889,0.7779268,3.888696,0.0280191,-0.6323352,0.1191228,339.6862,351.5378,30.41518
1.466502,-0.002624181,-0.003678974,-0.002111642,5.494098,0.7993121,3.88939,0.02814597,-0.6324704,0.1194158,339.7778,351.8271,30.47246
1.477755,-0.002577213,-0.003675643,-0.002119284,5.512041,0.8045076,3.885195,0.02830383,-0.6322833,0.1195354,339.8838,351.974,30.25333
1.488712,-0.002527192,-0.003686777,-0.002109127,5.522679,0.8213698,3.884473,0.02846767,-0.6319181,0.119514,339.8576,351.9685,30.00313
1.499836,-0.002486683,-0.003708111,-0.002109483,5.530694,0.8401792,3.898223,0.02861457,-0.6315042,0.1194107,339.8039,351.9498,29.74878
1.511048,-0.002468568,-0.003705241,-0.002122727,5.540741,0.8372492,3.878583,0.02867976,-0.6311454,0.1193518,339.8293,351.9467,29.59269
1.523184,-0.002456575,-0.003711532,-0.002132119,5.542222,0.8410802,3.882709,0.02868281,-0.6309391,0.1193545,339.9098,351.948,29.528
1.53479,-0.002431107,-0.003711972,-0.002138822,5.540301,0.8353508,3.890989,0.02868808,-0.6309111,0.1194551,339.9695,351.9268,29.52528
1.545609,-0.002396855,-0.003703968,-0.002141837,5.530307,0.8254948,3.895751,0.02866779,-0.6310543,0.1195581,339.9235,351.9342,29.61318
1.557364,-0.002371907,-0.003698478,-0.002139352,5.512424,0.8161194,3.899777,0.02873398,-0.631151,0.1196958,339.8814,352.046,29.59559
1.568284,-0.00234571,-0.003676645,-0.002145628,5.509309,0.7945552,3.890134,0.028804,-0.6313634,0.1198127,339.8988,352.1325,29.62183
1.579572,-0.002373417,-0.003681215,-0.002147201,5.496444,0.8111495,3.897174,0.02882149,-0.6316246,0.119901,339.9639,352.1319,29.73984
1.591257,-0.002387233,-0.003670683,-0.002164131,5.490604,0.8072436,3.894463,0.02879881,-0.6317471,0.1199386,339.9546,352.1052,29.8538
1.602585,-0.002401908,-0.003648503,-0.002183311,5.485373,0.8103577,3.893201,0.02883574,-0.6315523,0.1198845,339.8257,352.105,29.75566
1.613734,-0.002383544,-0.003623408,-0.002196565,5.466223,0.7941864,3.882087,0.02890168,-0.6314554,0.1197963,339.6762,352.1265,29.66581
1.624804,-0.002404984,-0.003606893,-0.002212024,5.455538,0.8027276,3.884693,0.02895906,-0.6312643,0.1197552,339.5836,352.1357,29.56697
1.636421,-0.002420549,-0.003584035,-0.00223821,5.455708,0.7998412,3.891091,0.02894176,-0.6312636,0.1198338,339.6517,352.1432,29.58181
