Time (s):,Headset position x:,Headset position y:,Headset position z:,Headset rotation x:,Headset rotation y:,Headset rotation z:,Right Hand Position x:,Right Hand Position y:,Right Hand Position z:,Right Hand rotation x:,Right Hand rotation y:,Right Hand rotation z:
0.01092579,0.01670914,0.0003789408,0.007637775,347.7766,4.432283,1.402621,0.2199339,-0.353186,0.2335946,339.887,349.0564,315.9285
0.02277262,0.01616186,0.0001808609,0.007175595,347.8036,4.422051,1.37091,0.2184798,-0.3531207,0.2338139,339.8454,348.5297,315.4404
0.0345782,0.01551381,-5.795207E-05,0.006702289,347.836,4.443001,1.334516,0.2167383,-0.3526354,0.2342333,340.5209,345.1086,317.372
0.04461709,0.01513658,-0.000203935,0.006403993,347.8687,4.412556,1.332176,0.2159488,-0.3538422,0.2324718,340.429,343.6044,317.9462
0.05617606,0.01469079,-0.0004126265,0.006083674,347.8933,4.376015,1.332241,0.2149264,-0.3548917,0.2315709,340.8493,342.9578,318.5818
0.06701879,0.01410063,-0.0006246968,0.005666875,347.9726,4.362056,1.302322,0.2142504,-0.3561624,0.2311136,341.6055,343.0657,318.8063
0.07983159,0.01343887,-0.000848915,0.005198187,348.0583,4.327574,1.285293,0.2135998,-0.3574164,0.2304608,342.274,343.1984,319.4797
0.09113256,0.01303698,-0.0009609913,0.004897458,348.1191,4.323715,1.30898,0.212977,-0.3586247,0.2298223,342.692,343.0093,320.2344
0.1003511,0.01271271,-0.001036061,0.004627039,348.1493,4.30349,1.328239,0.2125643,-0.359821,0.2292894,343.0742,343.3599,320.7677
0.1113455,0.01245676,-0.0010991,0.004408382,348.1371,4.287134,1.354341,0.2123019,-0.3608993,0.2287946,343.2673,343.842,321.1372
0.1223102,0.01214219,-0.001144084,0.004121231,348.1643,4.279686,1.344197,0.2121799,-0.361901,0.2284842,343.4199,344.3348,321.3774
0.1333117,0.01177964,-0.001187516,0.003740009,348.2035,4.256537,1.328275,0.2120733,-0.3629158,0.2282735,343.6185,344.7017,321.5538
0.1444101,0.01141439,-0.001209627,0.003427216,348.2093,4.2996,1.29352,0.2120517,-0.36398,0.2279647,344.1803,344.8147,321.7512
0.1556053,0.01120213,-0.001239509,0.003155448,348.208,4.29475,1.341004,0.2118496,-0.3651583,0.2276734,345.334,345.2508,322.1692
0.165709,0.01097441,-0.00125308,0.002907111,348.2023,4.293581,1.334525,0.2113963,-0.3663321,0.228202,347.1933,346.0681,322.8022
0.176426,0.01051,-0.0012562,0.002277104,348.2389,4.282175,1.353302,0.2112238,-0.3675266,0.2279318,348.7428,347.5874,323.5099
0.1878129,0.01024846,-0.001257194,0.001930498,348.2247,4.284461,1.374909,0.2106891,-0.3685265,0.2273951,349.6735,348.7865,324.8892
0.199154,0.009811465,-0.001244909,0.001283257,348.2154,4.287975,1.42269,0.2104077,-0.3693828,0.2269619,349.8869,349.1277,325.817
0.2104174,0.009514492,-0.001216197,0.0008668248,348.1938,4.295621,1.421502,0.2103604,-0.3699851,0.2262629,349.4485,348.9644,326.1266
0.2218043,0.009189237,-0.001180386,0.0003143554,348.1689,4.299335,1.458988,0.2110825,-0.3707833,0.225418,348.2321,348.543,325.5032
0.2337748,0.008951534,-0.001130398,-0.000111409,348.1654,4.291945,1.467259,0.2115957,-0.3716834,0.2248505,347.5165,348.6849,325.1017
0.244561,0.008655526,-0.001101349,-0.0006646654,348.1285,4.292089,1.47554,0.211989,-0.3725464,0.2245134,347.6516,349.2141,324.7946
0.2551989,0.008420549,-0.001065785,-0.001104319,348.1103,4.313253,1.488303,0.2122457,-0.3735484,0.224219,348.0092,349.4945,324.535
0.2673785,0.008176524,-0.001028777,-0.001625767,348.1018,4.317914,1.51918,0.2123049,-0.3746454,0.2238922,348.4734,349.6311,324.2584
0.2773969,0.007977925,-0.0009943356,-0.001982837,348.0865,4.320995,1.506796,0.212174,-0.3758359,0.2234794,348.7212,349.6693,324.0167
0.2885872,0.007707949,-0.0009341413,-0.002611484,348.0866,4.350366,1.545005,0.2119357,-0.3770652,0.223075,348.8419,349.5449,323.8029
0.2996908,0.007520631,-0.0008850935,-0.003046022,348.066,4.350924,1.557108,0.2115316,-0.3783335,0.2224975,348.8766,349.3174,323.6432
0.3108257,0.007234998,-0.0007824197,-0.003706737,348.0235,4.380584,1.57549,0.2109733,-0.3795963,0.2218519,348.8965,349.2099,323.5455
0.3222353,0.006930375,-0.0006333379,-0.004425501,347.9549,4.406511,1.595222,0.2102022,-0.3809612,0.2211689,348.9749,349.2207,323.5226
0.3330678,0.006741047,-0.0004778624,-0.004955808,347.9041,4.403764,1.617808,0.2094129,-0.3824681,0.2204325,348.9649,349.0855,323.4801
0.3444089,0.006485368,-0.0002611051,-0.005637583,347.8336,4.43468,1.66091,0.2084702,-0.384106,0.2197697,348.9949,348.9974,323.4109
0.355092,0.006308064,-9.17326E-05,-0.006167075,347.7593,4.431221,1.693302,0.207528,-0.3858027,0.2190526,349.0835,349.1588,323.3633
0.3665927,0.006057739,8.955749E-05,-0.006665409,347.647,4.468311,1.686696,0.2063479,-0.3876837,0.2182525,349.1653,349.4678,323.4882
0.3785078,0.005838204,0.000244303,-0.007074589,347.5501,4.478087,1.715397,0.2048936,-0.3896782,0.2173998,349.2016,349.6305,323.9246
0.3888271,0.00569152,0.0003941858,-0.007469833,347.4955,4.448699,1.746574,0.2032528,-0.391754,0.2164451,349.1107,349.7185,324.5349
0.3999634,0.005559583,0.0004950747,-0.007676838,347.4971,4.44027,1.741698,0.2012304,-0.3942295,0.2154321,348.9542,349.9338,325.239
0.4106438,0.005404959,0.0006177288,-0.008026646,347.4197,4.427039,1.77868,0.199134,-0.3969744,0.2143891,348.7186,350.0516,325.7862
0.4221885,0.005270116,0.0006693766,-0.00814792,347.4151,4.430598,1.74482,0.1966394,-0.4002376,0.2133223,348.4761,349.8986,326.2468
0.43312,0.005152851,0.0007484925,-0.008460714,347.3398,4.378923,1.789318,0.1941138,-0.4036306,0.2121434,348.2622,349.6292,326.489
0.444341,0.005035326,0.0007517405,-0.008607119,347.2625,4.392884,1.811849,0.1912345,-0.4073896,0.2109468,348.1936,349.2532,326.4853
0.4553007,0.004934464,0.0007639907,-0.008616821,347.3163,4.39573,1.781619,0.1881843,-0.4114217,0.2098088,348.3413,349.0005,326.2776
0.4664171,0.004856855,0.000778608,-0.008749841,347.2583,4.388091,1.786006,0.1847385,-0.4161223,0.2085639,348.7669,348.8025,325.829
0.4777658,0.004776698,0.0007841763,-0.00880905,347.2659,4.391366,1.779004,0.1807528,-0.4214184,0.2072252,349.4111,348.539,325.5677
0.488746,0.004743159,0.000769638,-0.008855033,347.239,4.396591,1.76029,0.1763702,-0.42712,0.2057451,350.0816,348.1153,325.633
0.50025,0.004702661,0.0007606613,-0.008900652,347.2573,4.409943,1.738406,0.171222,-0.4336003,0.2039925,350.7321,347.2862,326.1914
0.5112498,0.004704144,0.0007337154,-0.008920887,347.2881,4.428837,1.708889,0.1658875,-0.4402304,0.2021358,351.2555,346.2421,327.0088
0.5219076,0.004724086,0.0006978333,-0.008901002,347.358,4.457292,1.63067,0.1603904,-0.4473348,0.2001653,351.7112,344.9678,327.8773
0.5335166,0.004684028,0.000674546,-0.008882947,347.3805,4.470799,1.626505,0.1552041,-0.454492,0.1982446,352.2481,343.8463,328.3561
0.5440875,0.004633925,0.0006592722,-0.008830576,347.3791,4.483943,1.596048,0.1502921,-0.4617001,0.1961738,352.8739,342.9962,328.6416
0.5557801,0.004600711,0.0006597104,-0.008813402,347.3954,4.46014,1.60565,0.1455237,-0.4687275,0.1940613,353.4952,342.487,328.9432
0.5667031,0.004549596,0.0006439908,-0.008790475,347.3998,4.466018,1.615254,0.1409947,-0.4757954,0.1918946,354.1075,342.3246,329.1449
0.5779802,0.004601765,0.0006087313,-0.008673384,347.449,4.439226,1.590737,0.1364563,-0.4832258,0.189744,354.6614,342.017,329.1997
0.5896367,0.004658837,0.0005677881,-0.008581395,347.5001,4.413091,1.54634,0.1318006,-0.4909447,0.1875758,355.2609,341.5363,329.3238
0.6004732,0.004692242,0.0005288852,-0.008528125,347.549,4.429441,1.502897,0.1269674,-0.4989719,0.1852669,355.9621,340.9761,329.8619
0.6110426,0.004783361,0.0004875887,-0.008526509,347.5994,4.412827,1.470437,0.1220863,-0.506862,0.1829288,356.6577,340.1648,330.761
0.6221629,0.004843514,0.0004409109,-0.008530683,347.6194,4.42865,1.402589,0.1173116,-0.5145118,0.1804781,357.2458,339.1077,332.0747
0.6337378,0.004972122,0.0004356647,-0.008570116,347.6534,4.407188,1.327057,0.1128166,-0.5219039,0.1780081,357.7045,338.3633,333.4014
0.6445419,0.005026084,0.0004396912,-0.008596469,347.6511,4.410789,1.284192,0.1090391,-0.5287761,0.1756023,357.866,337.9235,334.5825
0.6553965,0.00511127,0.0004435067,-0.008608324,347.6325,4.392644,1.254891,0.1061364,-0.534964,0.1735344,357.7532,337.8572,335.4982
0.6665348,0.005289447,0.0004611356,-0.008599985,347.6411,4.342222,1.208479,0.1033806,-0.5410546,0.1717777,357.8091,338.1047,336.3607
0.6771141,0.005397615,0.000437853,-0.008554275,347.6158,4.324941,1.200377,0.1012475,-0.5470927,0.1704672,357.8419,338.7006,336.7505
0.6886398,0.005674254,0.0004617049,-0.008510343,347.6571,4.263213,1.169559,0.09890752,-0.5535493,0.1692799,358.0591,338.8338,337.0173
0.6997687,0.006028518,0.0003832382,-0.008375579,347.6501,4.212893,1.073043,0.09685696,-0.5599877,0.1684762,358.5842,338.7376,336.8363
0.7110785,0.006267426,0.0002968648,-0.008301498,347.6688,4.219503,1.016175,0.09475344,-0.5662042,0.1675129,359.1545,338.6757,336.6779
0.7221801,0.006610227,0.0001486936,-0.008131307,347.6924,4.244392,0.8672637,0.09295951,-0.5715879,0.166409,359.8221,338.5519,336.5378
0.7334797,0.006901215,2.474204E-06,-0.0079223,347.7351,4.263842,0.7557425,0.09109534,-0.5764295,0.1650367,0.1030527,338.4521,336.8503
0.7441611,0.007154875,-0.0001219711,-0.007661497,347.7855,4.26461,0.5823008,0.08936409,-0.5806513,0.1635892,0.0413457,338.4636,337.4826
0.7548949,0.007393029,-0.000319313,-0.007269812,347.8161,4.284151,0.4499465,0.08768,-0.5850987,0.162228,359.9023,338.4885,338.143
0.7669474,0.007609028,-0.0005545315,-0.006794926,347.8623,4.232718,0.3034005,0.08613994,-0.5896988,0.161068,359.7579,338.5452,338.9501
0.7773799,0.007736057,-0.0007643659,-0.006256587,347.9361,4.225412,0.124335,0.084747,-0.5945206,0.1602892,359.9344,338.5072,339.6583
0.7889261,0.007876482,-0.00110987,-0.005540491,347.9254,4.193208,0.01127363,0.0835591,-0.5993024,0.159693,0.3266208,338.6119,339.9709
0.799962,0.007960204,-0.001469766,-0.004770951,347.9523,4.194014,359.8502,0.08269235,-0.6038771,0.1591432,0.9068676,338.8598,339.9173
0.8109031,0.00789399,-0.001936225,-0.00379761,347.9915,4.21032,359.6347,0.08185342,-0.6082079,0.1583447,1.481083,338.9185,339.8339
0.8217453,0.007794402,-0.002392103,-0.002792548,348.1366,4.128443,359.3323,0.08106225,-0.6121673,0.1573576,2.034691,338.7498,339.7568
0.833333,0.007531721,-0.00307189,-0.001629034,348.3382,4.038178,359.0978,0.08027325,-0.6160104,0.1562972,2.398591,338.5847,339.8781
0.8445511,0.007163562,-0.003816016,-0.000418372,348.6157,3.835557,358.8864,0.0796971,-0.6198167,0.1551092,2.521659,338.4249,340.0847
0.8555853,0.006730091,-0.004609287,0.0008610041,348.8782,3.599741,358.6511,0.07924124,-0.6238165,0.1540132,2.576606,338.2711,340.4053
0.8670092,0.006182459,-0.005461748,0.002153022,349.2411,3.222914,358.3984,0.07896896,-0.6279391,0.1532116,2.686418,338.2468,340.7445
0.877698,0.005529672,-0.006382078,0.003503414,349.5841,2.909973,358.101,0.07881764,-0.6316924,0.152887,2.969851,338.6812,341.1646
0.8888932,0.004833404,-0.007435262,0.004851161,349.9779,2.524891,357.8656,0.0783513,-0.6339453,0.1528024,3.289157,339.0949,341.8181
0.899922,0.004096813,-0.008450442,0.006121881,350.4399,2.129219,357.5772,0.0774903,-0.633858,0.1526224,3.289625,339.1751,342.7722
0.9118552,0.003267009,-0.00954781,0.00734375,350.9028,1.692948,357.3596,0.07660855,-0.6326953,0.1521929,2.819627,339.0743,343.521
0.9220688,0.002467733,-0.01065659,0.008540628,351.2932,1.151518,357.0533,0.0757968,-0.63007,0.1517818,1.830858,338.549,343.6985
0.9330364,0.001510222,-0.01175859,0.009646378,351.6778,0.6243531,356.7435,0.0750576,-0.6277394,0.1515386,1.00099,337.9525,343.6293
0.9439573,0.000600718,-0.01276148,0.01068231,352.059,0.09482966,356.4405,0.07445771,-0.6253751,0.1514871,0.444078,337.5476,343.4609
0.9554023,-0.0003024191,-0.01372223,0.01156838,352.427,359.5253,356.0782,0.07404327,-0.6236035,0.1515374,0.1216507,337.3507,343.351
0.9668221,-0.001219764,-0.01471714,0.01249221,352.7665,359.0255,355.7156,0.07398197,-0.6222355,0.15179,359.8791,337.2894,342.9764
0.9777972,-0.002133285,-0.01577238,0.01345518,353.0445,358.572,355.3493,0.07409123,-0.6215596,0.152071,359.5953,337.1779,342.5169
0.9889346,-0.002996081,-0.01676128,0.01418991,353.3877,358.0711,354.986,0.07426901,-0.621221,0.1521404,359.2896,337.0607,342.0995
1.000469,-0.003928515,-0.01762425,0.01485505,353.7418,357.6302,354.6438,0.07466641,-0.6219026,0.1521312,359.177,336.9155,341.6748
1.011126,-0.004833118,-0.01835652,0.01547843,354.1007,357.1799,354.3351,0.07482124,-0.6230748,0.1521827,359.4807,336.8105,341.6891
1.02223,-0.005664508,-0.01894811,0.01593068,354.3617,356.7228,354.1138,0.07508691,-0.6246571,0.1520902,359.8993,337.0577,341.9214
1.033526,-0.006494109,-0.01940154,0.01632075,354.5452,356.2809,353.8681,0.07532012,-0.6261075,0.1519157,0.2340202,337.3043,342.0966
1.044131,-0.007251341,-0.01978543,0.01664851,354.6497,355.7906,353.6896,0.07555167,-0.6279699,0.1515388,0.6403331,337.6162,342.2288
1.055398,-0.008005541,-0.02006727,0.01690849,354.6518,355.4083,353.5734,0.0756505,-0.629666,0.1511362,1.007894,337.6233,342.1982
1.066499,-0.00857715,-0.02031482,0.01712958,354.6522,354.9651,353.4418,0.07564332,-0.6310152,0.1506853,1.293652,337.5959,342.2029
1.078198,-0.009118017,-0.0204429,0.01733645,354.7159,354.6399,353.2445,0.07530647,-0.6317837,0.1500329,1.376102,337.6392,342.4539
1.08916,-0.009390637,-0.02073056,0.01754151,354.663,354.185,353.0589,0.07501362,-0.6323306,0.1495189,1.368069,337.6746,342.8058
1.100001,-0.009712376,-0.02093961,0.01763969,354.6262,353.8667,352.9951,0.07446723,-0.6319907,0.1489027,0.9981488,337.6915,343.3695
1.111243,-0.009826983,-0.02099344,0.01784059,354.6475,353.5633,352.888,0.07398468,-0.6317897,0.1483787,0.7330124,337.681,343.8338
1.121927,-0.009749341,-0.02103647,0.01795397,354.7011,353.258,352.7015,0.0734126,-0.6311883,0.1478558,0.3814196,337.6748,344.369
1.133333,-0.009532715,-0.02111582,0.01813629,354.6678,353.1274,352.591,0.07294314,-0.6307875,0.1473442,0.09833428,337.67,344.7961
1.14432,-0.00925586,-0.02111263,0.01833371,354.6237,353.006,352.4166,0.0727177,-0.630407,0.1468192,359.8135,337.6871,345.0049
1.155622,-0.00877745,-0.021069,0.0185474,354.5428,352.9009,352.1954,0.07264801,-0.6302968,0.1463481,359.6579,337.8645,345.1301
1.166462,-0.008342884,-0.0210765,0.01882407,354.4515,352.838,351.9648,0.07262707,-0.6305452,0.1458855,359.6611,338.0415,345.2384
1.177879,-0.007794335,-0.0212107,0.01915554,354.3852,352.7729,351.7751,0.07271024,-0.6313965,0.1454028,359.9039,338.2122,345.3778
1.189039,-0.007234767,-0.02138046,0.01943349,354.4384,352.7074,351.5832,0.07277232,-0.6321324,0.1448387,0.01487509,338.3026,345.5461
1.199809,-0.006539584,-0.02170617,0.01975525,354.4987,352.6023,351.337,0.07305662,-0.6330805,0.1442683,0.09196234,338.4729,345.6738
1.211416,-0.005804267,-0.02200725,0.02006471,354.6167,352.6238,351.0953,0.07335366,-0.6339874,0.1437522,0.1552719,338.6963,345.8778
1.222618,-0.005015582,-0.02223331,0.02038865,354.6932,352.6233,350.8109,0.07372092,-0.6349562,0.1433102,0.3064561,338.866,346.1261
1.233909,-0.004155796,-0.02217743,0.02078447,354.8792,352.6346,350.8425,0.07400623,-0.6359047,0.1429556,0.5367461,339.0146,346.4151
1.244792,-0.003423318,-0.0221412,0.02108482,354.9092,352.6707,350.993,0.07426905,-0.6368498,0.1426415,0.7999278,339.2177,346.7618
1.255301,-0.002653987,-0.02216435,0.02139186,354.8389,352.8231,351.1693,0.07449273,-0.6377019,0.1423297,1.018798,339.3829,347.1168
1.266387,-0.00191367,-0.02211859,0.02161975,354.8529,352.9235,351.1943,0.07483106,-0.6381162,0.1419218,0.9936027,339.4081,347.3542
1.277567,-0.001111761,-0.02228373,0.02188947,354.7304,353.0263,351.1683,0.07529645,-0.6379639,0.1414419,0.6655638,339.5155,347.4614
1.289031,-0.0003434233,-0.02238457,0.02212082,354.6977,353.1595,351.1765,0.07578828,-0.6377814,0.1410199,0.3503363,339.6581,347.4848
1.300937,0.0003959499,-0.02258194,0.02237044,354.6057,353.2686,351.097,0.07645722,-0.6375536,0.140824,0.1883861,339.7758,347.3408
1.312143,0.001176242,-0.02279265,0.02257818,354.5426,353.3551,350.9213,0.07716735,-0.6374592,0.1407176,0.1781237,339.9324,347.1966
1.323372,0.002009016,-0.02298859,0.02272812,354.5341,353.4055,350.6889,0.0780502,-0.6374179,0.1406903,0.2488762,340.1689,347.0245
1.333723,0.002862938,-0.02316779,0.02290582,354.5114,353.463,350.4593,0.07897978,-0.6374223,0.1406549,0.2551251,340.4314,346.897
1.345917,0.003798244,-0.02328452,0.02314105,354.4466,353.4666,350.2346,0.08009866,-0.6374334,0.1406534,0.1772437,340.7105,346.6754
1.3562,0.004700214,-0.02326761,0.02335726,354.4102,353.4691,350.0599,0.0812443,-0.6375702,0.1406173,0.08947231,340.9684,346.472
1.367182,0.00549566,-0.02328993,0.02366027,354.2712,353.4759,349.9852,0.08242153,-0.6378455,0.1406239,0.1547744,341.2213,346.2914
1.378405,0.006269586,-0.02327552,0.02397277,354.2534,353.3689,349.9218,0.08355481,-0.6380994,0.140639,0.3874072,341.5188,346.1663
1.397663,0.007604748,-0.02357074,0.02460209,354.2752,353.1956,349.7839,0.08480734,-0.6382332,0.1406196,0.5524703,341.8799,346.0441
1.405864,0.008232598,-0.02377517,0.02493414,354.2867,353.075,349.7038,0.08689297,-0.6385662,0.1403589,0.5802911,342.3637,345.6633
1.413224,0.008799128,-0.02379857,0.02516029,354.4561,352.952,349.6333,0.08791645,-0.6386625,0.1402224,0.5445839,342.584,345.4183
1.423832,0.009315737,-0.02394606,0.02547593,354.4366,352.8604,349.5714,0.08883188,-0.6386851,0.140089,0.4938875,342.8064,345.1666
1.434014,0.009797807,-0.02373177,0.02588889,354.5302,352.6707,349.5425,0.08972912,-0.6384857,0.1400097,0.3979979,343.0372,344.7967
1.444394,0.009352054,-0.02369584,0.0258741,354.334,352.6141,349.6734,0.08961929,-0.638369,0.1400774,0.3723303,342.9732,344.8039
1.455571,0.009757642,-0.02370375,0.02617439,354.1867,352.3363,349.5411,0.09022671,-0.6383756,0.1400408,0.401154,343.0977,344.7199
1.466698,0.01000055,-0.02372706,0.02643645,354.0644,352.0653,349.309,0.09080135,-0.6383817,0.1400171,0.4257243,343.2461,344.6346
1.478629,0.01027301,-0.02395079,0.02662976,353.9244,351.8351,348.9153,0.09126606,-0.6383861,0.1399952,0.3734693,343.3937,344.5826
1.489649,0.01058213,-0.02418421,0.02678444,353.8653,351.5825,348.4141,0.09169962,-0.6384081,0.1399998,0.3188861,343.5107,344.5585
1.500306,0.01080666,-0.02453026,0.02696706,353.8053,351.3568,347.8244,0.09205882,-0.63844,0.1400337,0.232308,343.6256,344.5094
1.511896,0.01110075,-0.0247723,0.02711385,353.7918,351.0812,347.2353,0.09240384,-0.638576,0.1400397,0.1824663,343.7425,344.4659
1.522118,0.01143745,-0.02498202,0.02735884,353.744,350.8083,346.7466,0.09266194,-0.6387979,0.1400974,0.2868969,343.8375,344.513
1.533839,0.01175008,-0.02499378,0.02765736,353.686,350.49,346.3298,0.09291574,-0.6389591,0.1401434,0.4148954,343.9431,344.5266
1.544717,0.012041,-0.02487335,0.02793507,353.5872,350.1334,346.058,0.09322795,-0.6389712,0.1401274,0.3959695,344.0888,344.5248
1.555608,0.01236694,-0.02494209,0.02821223,353.4198,349.813,345.819,0.09344096,-0.6390441,0.1400978,0.334555,344.1846,344.4997
1.566379,0.01271312,-0.02507582,0.0285167,353.2816,349.517,345.4737,0.09363224,-0.6391411,0.1400843,0.2831112,344.2605,344.5015
1.577412,0.01301211,-0.02521606,0.02872967,353.2105,349.32,345.0457,0.09374956,-0.6392736,0.1400654,0.3012893,344.3087,344.5281
1.588058,0.01338166,-0.02545962,0.02888352,353.1012,349.1117,344.5857,0.09385213,-0.6392099,0.1401082,0.3265902,344.2826,344.5346
1.599081,0.01372997,-0.0257773,0.02905955,352.8962,348.9548,344.0112,0.0939917,-0.6391166,0.1400745,0.2677924,344.3303,344.5063
1.61047,0.0140222,-0.02605482,0.02918478,352.7055,348.8313,343.3894,0.09418575,-0.638929,0.1399883,0.09757293,344.4323,344.482
1.621884,0.01437175,-0.02629318,0.02929464,352.5465,348.6548,342.8134,0.09430107,-0.638781,0.1400347,0.002199108,344.4569,344.4679
1.634504,0.01470852,-0.02641126,0.0294454,352.5323,348.4091,342.3096,0.09436205,-0.6387217,0.1401064,359.9936,344.4904,344.4725
1.645267,0.01499095,-0.0266419,0.02957568,352.5014,348.2073,341.9509,0.09449079,-0.6386546,0.1402094,0.03097043,344.5566,344.4695
1.654523,0.01526058,-0.02686604,0.02969526,352.4879,347.9611,341.6548,0.09462555,-0.6386165,0.1402707,0.05923633,344.6616,344.438
1.665664,0.01551901,-0.0270462,0.02972917,352.4651,347.7308,341.3938,0.09484705,-0.6386203,0.1403568,0.08666681,344.7639,344.3353
