Time (s):,Headset position x:,Headset position y:,Headset position z:,Headset rotation x:,Headset rotation y:,Headset rotation z:,Right Hand Position x:,Right Hand Position y:,Right Hand Position z:,Right Hand rotation x:,Right Hand rotation y:,Right Hand rotation z:
0.004278892,0.3257678,0.08003765,0.01337018,348.7086,264.0387,0.7982309,0.1533254,-0.4999423,0.226468,9.408765,275.6057,343.6113
0.01124549,0.3270083,0.07997795,0.01446379,348.535,264.017,0.6916269,0.1552199,-0.5002117,0.226204,9.243181,276.7919,344.9592
0.01754195,0.3277731,0.07999617,0.01500822,348.3976,264.0019,0.6100315,0.1566596,-0.5004972,0.2257245,9.259995,278.1807,346.5957
0.02552544,0.3291892,0.07986906,0.0162733,348.1717,263.9885,0.4878177,0.1575588,-0.5006713,0.2254381,9.206793,278.9852,347.5851
0.03300461,0.3303328,0.07979678,0.01720311,347.9641,263.9833,0.3752195,0.1593542,-0.5010396,0.2250251,8.934619,280.4515,349.4291
0.03869406,0.3312357,0.0797175,0.0179954,347.8005,263.9897,0.2883717,0.1616279,-0.5014483,0.2246459,8.349832,281.9813,351.3358
0.04595507,0.3325182,0.07963307,0.0191026,347.5584,264.0035,0.159564,0.1624613,-0.5015832,0.2245581,8.108309,282.4114,351.8706
0.05295836,0.3336463,0.0795893,0.02000884,347.3116,264.0264,0.03812965,0.1640994,-0.5018923,0.2244607,7.703039,283.2314,352.8183
0.06002736,0.3348645,0.07951574,0.02104873,347.0532,264.0554,359.9193,0.1655101,-0.5022264,0.2244864,7.433005,283.9416,353.485
0.06405708,0.3354895,0.07948485,0.02155787,346.9151,264.072,359.8594,0.1667472,-0.5025971,0.2245848,7.261248,284.5872,354.0126
0.06800716,0.3361945,0.07946031,0.02209052,346.7493,264.0916,359.7908,0.16737,-0.5028332,0.2246997,7.223698,284.8862,354.203
0.07310581,0.3369161,0.07945292,0.02258265,346.5648,264.1171,359.7289,0.1680629,-0.5031515,0.2248733,7.231777,285.1504,354.3321
0.07702176,0.3375778,0.07944439,0.02305881,346.3931,264.1262,359.6718,0.1685677,-0.5034128,0.2250078,7.250058,285.2662,354.3875
0.08490825,0.3389114,0.07938997,0.02403224,346.0503,264.1464,359.5731,0.1690207,-0.5036931,0.2251522,7.292058,285.2942,354.3936
0.08924972,0.3395861,0.07936531,0.0244923,345.8711,264.1499,359.5229,0.1697875,-0.5043148,0.2254808,7.442823,285.1505,354.3149
0.09393792,0.3404792,0.0793307,0.02511789,345.6454,264.1461,359.4703,0.1701637,-0.5047179,0.2256966,7.575537,284.9851,354.2349
0.09818182,0.3411848,0.07932405,0.02557142,345.4634,264.1461,359.4343,0.1704746,-0.5051315,0.2259025,7.731006,284.7776,354.1374
0.1032335,0.3421113,0.07930978,0.02619569,345.2357,264.1428,359.404,0.1707457,-0.5055434,0.2261078,7.904212,284.5161,354.0078
0.1077986,0.3427522,0.07931197,0.02661406,345.0908,264.1382,359.3872,0.1709577,-0.5061144,0.2264055,8.171748,284.1608,353.8221
0.1121019,0.3434765,0.07934511,0.02701731,344.9327,264.1316,359.3695,0.171151,-0.5065629,0.226645,8.398717,283.876,353.6561
0.1172504,0.3442287,0.07935513,0.02748763,344.7964,264.1274,359.3538,0.1714943,-0.5071367,0.2269393,8.674721,283.441,353.3861
0.123674,0.3453107,0.07934737,0.02817105,344.627,264.1152,359.3343,0.1717724,-0.5074915,0.2271286,8.840652,283.1586,353.1828
0.1307663,0.346489,0.07927394,0.02900218,344.4878,264.094,359.3102,0.1724002,-0.5081982,0.2275231,9.172386,282.6458,352.7568
0.134847,0.3471054,0.07922052,0.02945447,344.4316,264.0812,359.295,0.1731802,-0.5089629,0.2280191,9.562886,282.2865,352.281
0.1427039,0.3484308,0.07911178,0.03037196,344.3394,264.0534,359.2557,0.1735324,-0.5093099,0.2282648,9.733595,282.1596,352.0615
0.1496528,0.3495083,0.0790332,0.03106533,344.3027,264.027,359.2284,0.1745104,-0.5098683,0.2286906,9.902849,282.0448,351.6585
0.1566897,0.3506503,0.07891618,0.03185602,344.2953,263.9826,359.2088,0.175398,-0.5102803,0.2289323,9.945652,281.9393,351.4277
0.160741,0.3512618,0.07885805,0.03224888,344.2955,263.9507,359.2021,0.1763154,-0.5105697,0.2290532,9.889607,281.9251,351.3777
0.1687734,0.3525574,0.07879161,0.03288763,344.3042,263.8609,359.1972,0.1768161,-0.5106934,0.2291138,9.844238,281.9436,351.3884
0.1729952,0.3531589,0.07874095,0.03324205,344.3076,263.8206,359.1932,0.1778931,-0.5108947,0.2292676,9.703768,282.0599,351.4731
0.180585,0.3544853,0.07865163,0.03396276,344.3072,263.7108,359.2038,0.1783148,-0.5109609,0.2293551,9.630301,282.1393,351.5238
0.1875689,0.355661,0.07859371,0.03452636,344.3016,263.5952,359.2289,0.1792119,-0.5111009,0.2295971,9.465981,282.3253,351.5949
0.191963,0.3563443,0.07855968,0.03487191,344.2945,263.5358,359.2458,0.1799947,-0.5112317,0.2298838,9.307818,282.4935,351.5874
0.1960937,0.357109,0.07853422,0.03523465,344.2747,263.4538,359.2719,0.180385,-0.5112969,0.2300664,9.219023,282.5647,351.5295
0.2001886,0.3578252,0.07852016,0.03557239,344.2567,263.3777,359.2935,0.1807571,-0.5113621,0.2302774,9.119682,282.598,351.3987
0.2046384,0.3586413,0.07848047,0.03602274,344.2253,263.2993,359.3297,0.181152,-0.5114211,0.230485,9.00489,282.6178,351.2549
0.2094225,0.3593681,0.07848734,0.03631008,344.1928,263.2186,359.3711,0.1815671,-0.5114824,0.2307098,8.86755,282.6021,351.0661
0.2135367,0.360123,0.07848403,0.03664248,344.1552,263.1348,359.4059,0.1819198,-0.5115336,0.2309105,8.732841,282.556,350.8664
0.2176602,0.3608229,0.07847483,0.03696387,344.122,263.0624,359.441,0.1822639,-0.511588,0.2311034,8.597704,282.4791,350.6495
0.2217628,0.361529,0.0784661,0.03727444,344.0851,262.9901,359.4666,0.1825849,-0.5116482,0.2312845,8.482266,282.3801,350.4287
0.2294664,0.3628706,0.07842213,0.03790813,344.0143,262.8456,359.5026,0.1828887,-0.5117215,0.2314524,8.386249,282.2652,350.2067
0.2334264,0.3634795,0.07838979,0.03821344,343.9829,262.7848,359.5048,0.1834562,-0.511893,0.2317775,8.284134,281.9868,349.7409
0.240473,0.3647401,0.07832237,0.038824,343.9186,262.6534,359.4971,0.1836822,-0.5119771,0.2319059,8.282285,281.8432,349.5349
0.2483851,0.3660351,0.07825982,0.03937856,343.8407,262.5034,359.4603,0.1841663,-0.5121624,0.2321725,8.312495,281.5146,349.0667
0.2555704,0.3671736,0.0782128,0.03982769,343.7704,262.3719,359.403,0.1846707,-0.5123244,0.2324657,8.462078,281.0405,348.4597
0.2597998,0.3677007,0.07823501,0.03991286,343.737,262.2986,359.3713,0.1851439,-0.5124309,0.2327312,8.591247,280.5706,347.851
0.2639075,0.3683119,0.07826075,0.04001162,343.6982,262.2136,359.3347,0.1854312,-0.5124601,0.232896,8.664533,280.2549,347.4415
0.2687874,0.3691864,0.07829753,0.04015289,343.6426,262.092,359.2823,0.1857403,-0.512437,0.2330921,8.727177,279.8737,346.9331
0.2746026,0.3697266,0.07832024,0.04024012,343.6082,262.0169,359.2499,0.1861729,-0.5123825,0.2333672,8.798462,279.3134,346.1687
0.2792086,0.3704108,0.07834897,0.0403506,343.5646,261.9217,359.209,0.1864864,-0.5123385,0.2335668,8.845883,278.8954,345.5917
0.2842631,0.3710396,0.07837535,0.0404521,343.5244,261.8343,359.1715,0.1867951,-0.5121764,0.2338291,8.884501,278.3627,344.8214
0.2883105,0.3716562,0.07840121,0.04055163,343.485,261.7485,359.1347,0.1870349,-0.5120556,0.2340241,8.911704,277.9466,344.2304
0.2942335,0.372404,0.07843252,0.04067229,343.437,261.6445,359.0902,0.187373,-0.5118724,0.2343014,8.939476,277.3322,343.3596
0.3012797,0.3734073,0.0784745,0.04083414,343.3726,261.5049,359.0306,0.187602,-0.5117058,0.2345069,8.949849,276.8679,342.7057
0.3056934,0.3739616,0.07849766,0.04092353,343.3369,261.4278,358.9978,0.1879507,-0.5113905,0.2348407,8.9623,276.0806,341.6194
0.3110643,0.3747592,0.07853096,0.04105213,343.2856,261.3168,358.9506,0.1881852,-0.5111493,0.2350636,8.980879,275.5127,340.8627
0.3162071,0.3754402,0.07855937,0.0411619,343.2416,261.2221,358.9103,0.1884188,-0.5108959,0.2352831,9.007652,274.9326,340.1029
0.3205611,0.376034,0.07858412,0.04125759,343.2032,261.1395,358.8752,0.1886024,-0.5106757,0.2354512,9.041837,274.468,339.5042
0.3254706,0.3767021,0.07861194,0.04136523,343.1599,261.0465,358.8358,0.1887936,-0.5104254,0.2356111,9.087388,274.004,338.9162
0.3300931,0.3773419,0.07863856,0.04146829,343.1184,260.9575,358.7982,0.1889789,-0.5101882,0.2357574,9.123622,273.5687,338.368
0.3353985,0.3780076,0.07866623,0.04157549,343.0752,260.8649,358.7591,0.1892027,-0.5098991,0.2359053,9.16466,273.0895,337.7807
0.3397536,0.3786505,0.07869294,0.041679,343.0334,260.7754,358.7213,0.1893752,-0.5096765,0.2360021,9.18687,272.7413,337.364
0.3448056,0.3793367,0.07872141,0.04178945,342.9887,260.6799,358.6811,0.189582,-0.5094106,0.2361009,9.20103,272.3482,336.8969
0.3494981,0.3801405,0.07875474,0.04191879,342.9362,260.568,358.6341,0.1897981,-0.5091286,0.2361684,9.194869,271.9824,336.4893
0.3555605,0.3805269,0.07877075,0.04198097,342.911,260.5143,358.6115,0.1900578,-0.5087966,0.2362584,9.163788,271.5561,336.0154
0.3612038,0.3656723,0.07733135,0.0420396,344.5426,261.5926,357.1957,0.1902762,-0.5085634,0.2364898,9.113084,271.1641,335.4883
0.3668449,0.3653916,0.0771619,0.04222667,344.6772,261.5605,357.0202,0.1905584,-0.5083203,0.2368592,9.026176,270.6116,334.6792
0.3742954,0.3655781,0.07752209,0.0422385,345.2508,261.4321,356.3088,0.1912646,-0.5078495,0.2378906,8.772605,269.1337,332.4612
0.3797467,0.3656454,0.07776161,0.04223134,345.7261,261.4269,355.8088,0.192514,-0.5070724,0.2392653,8.09751,266.6857,328.8404
0.3892474,0.3650221,0.077246,0.04261865,345.8464,261.4703,356.1006,0.1927626,-0.5063836,0.2380929,7.681064,266.5778,329.7612
0.3952657,0.3647962,0.07711616,0.04265409,345.9933,261.4989,356.0327,0.1937948,-0.5051144,0.2373947,6.845258,265.556,329.6809
0.4040417,0.3644174,0.07687321,0.04257617,346.0447,261.736,355.9693,0.1945761,-0.5042498,0.2369023,6.450457,265.2842,329.8867
0.41537,0.363952,0.07652081,0.04258089,346.0066,262.1485,356.1284,0.1951928,-0.5034069,0.2363687,6.317647,265.6504,330.4139
0.4263714,0.3636275,0.07628724,0.04269006,346.0906,262.5841,356.3802,0.1955309,-0.5027348,0.2358345,6.47368,266.3926,331.0845
0.4375697,0.3634025,0.0761799,0.04268309,346.2654,263.1884,356.6254,0.1956551,-0.5022953,0.235472,6.834246,266.758,331.2938
0.4488578,0.3631097,0.07598922,0.04280237,346.376,263.7916,356.9224,0.1957323,-0.5020424,0.2351542,7.285987,266.9235,331.2886
0.4605229,0.3628223,0.07580422,0.04296157,346.4669,264.3729,357.1526,0.1947464,-0.5034959,0.2360795,7.351228,266.8849,331.2779
0.4719208,0.3625469,0.07558797,0.04323773,346.5076,264.8827,357.4577,0.194752,-0.5035073,0.2360915,7.213772,266.7407,331.2839
0.4832667,0.3624563,0.07551421,0.04353043,346.588,265.2061,357.6874,0.1949073,-0.5030203,0.2362639,7.475283,266.4194,331.1727
0.4949628,0.3623749,0.07533065,0.04407734,346.5609,265.0288,357.9925,0.1948166,-0.5030206,0.2363143,7.685243,266.0536,331.0352
0.5057739,0.3623479,0.07528422,0.04413545,346.5757,265.1481,358.2325,0.1963847,-0.5020939,0.2348633,7.72922,265.9453,330.9975
0.5168484,0.3623244,0.07528674,0.04404212,346.6359,265.3235,358.3566,0.1964454,-0.5021064,0.2348468,7.513686,266.0881,331.0445
0.5280721,0.3621595,0.07519095,0.04385341,346.5702,265.7085,358.4359,0.1985877,-0.5026094,0.2332198,7.549609,266.0652,331.2133
0.5395107,0.3622177,0.07529963,0.043923,346.7355,265.821,358.3143,0.1989398,-0.5032264,0.2324578,7.950241,266.0479,331.4974
0.5505719,0.3622408,0.0752731,0.04427771,346.928,265.6767,358.5583,0.1990732,-0.5036525,0.2317107,8.274717,266.0944,331.8202
0.5618581,0.4075811,0.07619146,0.0495335,345.8785,265.1721,358.6403,0.1994235,-0.5038151,0.2311841,8.185281,266.2209,332.1144
0.5732079,0.4084982,0.07627132,0.04953507,345.7948,264.9428,358.6645,0.1998528,-0.5037817,0.2307548,7.711108,266.4048,332.5049
0.5848337,0.4093567,0.07635211,0.04965676,345.7258,264.9633,358.6951,0.2002558,-0.5038259,0.230407,7.334566,266.5266,332.9018
0.5959717,0.41021,0.07643792,0.04970384,345.6613,265.1203,358.6655,0.200567,-0.5039479,0.2301764,7.377258,266.5352,333.1675
0.6069242,0.4107456,0.07651304,0.0498336,345.7035,265.129,358.6497,0.2007885,-0.5039997,0.2301525,7.811016,266.3905,333.1152
0.6179706,0.4106651,0.07646487,0.04999789,345.662,265.1322,358.5493,0.2011066,-0.5038704,0.2302096,8.083653,266.2243,332.8117
0.6298553,0.4119929,0.07665362,0.05018246,345.7367,265.2467,358.426,0.2015158,-0.503699,0.230262,8.163222,266.0527,332.4124
0.6405444,0.4127696,0.07672825,0.05053182,345.7209,265.2454,358.2211,0.2019657,-0.5035786,0.2303874,8.248458,265.8315,331.9185
0.6515578,0.4133377,0.07668927,0.05060951,345.5118,265.2603,358.0253,0.202357,-0.5035062,0.230401,8.375107,265.6379,331.7003
0.6762021,0.4138451,0.07663426,0.05097032,345.2978,265.1232,358.1435,0.2027381,-0.5035095,0.2305284,8.312193,265.8382,332.006
0.6848181,0.4152233,0.07686023,0.05103683,345.1196,265.0015,358.0343,0.2034364,-0.5034202,0.2306621,8.246991,266.1095,332.293
0.6952985,0.415818,0.07703117,0.0511282,345.0541,265.0556,358.0238,0.2038225,-0.5034028,0.2307554,8.047261,266.383,332.6262
0.7063435,0.4163242,0.07712494,0.05140726,344.947,265.1506,358.0139,0.204273,-0.5034353,0.2308353,7.720137,266.5015,332.8273
0.7177596,0.4168994,0.0772685,0.05173476,344.875,265.1945,357.9841,0.2046826,-0.5035633,0.2308489,7.591039,266.4431,332.8985
0.7291809,0.4174505,0.07748624,0.05212922,344.8299,265.3207,358.0034,0.2048748,-0.5038854,0.2308376,7.993132,266.1891,332.7598
0.7401562,0.417952,0.07764366,0.0525103,344.7023,265.3694,358.063,0.2050165,-0.5041445,0.2309267,8.302671,266.0342,332.5414
0.7510723,0.4184594,0.07777358,0.05264989,344.6032,265.468,358.102,0.2052726,-0.5042948,0.2310819,8.373438,265.9003,332.2309
0.7626221,0.4189376,0.07785577,0.05293828,344.5438,265.4605,358.2704,0.2056966,-0.5043325,0.2312174,8.111039,265.793,332.0018
0.77321,0.419289,0.07793684,0.05320176,344.4592,265.4989,358.3332,0.2060579,-0.5044173,0.2312965,7.920518,265.7589,332.0256
0.7843719,0.4197339,0.07803739,0.05339837,344.4681,265.5618,358.4131,0.2061494,-0.5045219,0.2313264,7.92168,265.8348,332.154
0.7953742,0.4200826,0.07804272,0.05364997,344.3766,265.5173,358.4391,0.2061606,-0.5046086,0.2313339,7.963,265.9366,332.2656
0.8062897,0.4204029,0.07803033,0.05382507,344.2556,265.5135,358.4857,0.2066253,-0.5048531,0.2315267,7.824472,266.1582,332.4367
0.8174743,0.4206932,0.07808172,0.0539884,344.2014,265.5665,358.5045,0.2069718,-0.5048967,0.2315286,7.675792,266.2058,332.5155
0.8288361,0.4208924,0.07808276,0.05422731,344.1323,265.5624,358.5597,0.2072444,-0.5049478,0.2314959,7.641018,266.1944,332.5504
0.8395227,0.4210913,0.07807517,0.0544133,344.0917,265.5887,358.6028,0.2073096,-0.5049624,0.2313805,7.702559,266.0869,332.5392
0.8504317,0.4208564,0.07803788,0.05462297,344.1711,265.5698,358.5106,0.2075991,-0.5051172,0.2312914,7.686581,265.9919,332.6096
0.8617094,0.4210952,0.07800186,0.05484686,344.1182,265.6131,358.5429,0.2077799,-0.5053225,0.2312281,7.742037,265.8922,332.6341
0.8725023,0.421072,0.07801089,0.05508333,344.1505,265.6319,358.5103,0.2078704,-0.5055124,0.2311924,7.83923,265.8498,332.617
0.8834202,0.42155,0.07799964,0.05527573,344.0358,265.7551,358.532,0.2079461,-0.5059546,0.2310812,8.100204,265.8246,332.6257
0.8944609,0.4218329,0.07804668,0.05542627,343.975,265.8705,358.5932,0.2079628,-0.5063729,0.2309417,8.263297,265.8257,332.7152
0.9055203,0.4219563,0.07805067,0.05559486,343.9071,265.9878,358.6648,0.2079635,-0.5069179,0.2307293,8.379081,265.8536,332.9264
0.9166771,0.4219685,0.07802068,0.0558227,343.9116,266.067,358.8225,0.2080366,-0.5074422,0.2304731,8.343663,265.9265,333.2419
0.9285862,0.4218612,0.07789089,0.05601212,343.8628,266.1311,358.9161,0.2082396,-0.507907,0.2301833,8.202385,265.9736,333.5411
0.9391817,0.4218432,0.07778747,0.05611509,343.925,266.2508,358.9947,0.2084573,-0.5083924,0.2299031,8.084992,265.9518,333.7439
0.9503746,0.4217317,0.07761262,0.05623869,343.9342,266.3202,358.9897,0.2086082,-0.5089547,0.229603,8.041023,265.8133,333.8802
0.961745,0.421537,0.07739804,0.05640526,343.9531,266.4049,359.0552,0.2086998,-0.5095796,0.2292255,8.025535,265.6047,333.9712
0.9723812,0.4213346,0.07723238,0.05644329,343.9324,266.5082,359.014,0.2087342,-0.5101717,0.2289512,8.106726,265.5686,334.0276
0.9838459,0.4211742,0.07722119,0.05648637,343.9612,266.5435,358.942,0.2086598,-0.5107889,0.2287628,8.395278,265.668,334.0144
0.9953392,0.420955,0.07712413,0.05654293,343.898,266.5577,358.9859,0.2084386,-0.511499,0.2286183,8.804262,265.913,334.0632
1.006093,0.4207806,0.07712977,0.0565496,343.8792,266.6121,358.9492,0.2080069,-0.5124048,0.2285783,9.27296,266.4039,334.1865
1.016932,0.4205114,0.07707478,0.05663317,343.8108,266.6657,358.9872,0.2073987,-0.5134341,0.2286636,9.715099,267.1458,334.2699
1.028514,0.4199276,0.0769552,0.05665202,343.6276,266.8513,359.0305,0.2067008,-0.5146169,0.2287759,10.06909,268.1321,334.4916
1.039483,0.4194949,0.07690769,0.05675279,343.5671,266.9811,359.054,0.2060987,-0.5158747,0.2287799,10.26335,269.1013,335.0995
1.050813,0.4189085,0.07677154,0.05710114,343.4832,267.1462,358.9948,0.2055217,-0.5173696,0.2287357,10.41694,269.8203,335.8332
1.062192,0.4181572,0.0765462,0.05718419,343.3332,267.4434,358.8685,0.2051453,-0.5189415,0.2281862,10.64288,270.4002,336.7763
1.073222,0.4175051,0.07633798,0.05725832,343.4483,267.497,358.9185,0.2050176,-0.520505,0.2274707,10.61405,271.1068,337.8974
1.084179,0.4166589,0.07599216,0.0572513,343.596,267.442,359.0881,0.2049121,-0.5221215,0.2268271,10.53342,271.7714,338.8555
1.095202,0.415728,0.0755671,0.05718333,343.6165,267.3616,359.1746,0.2046967,-0.5239645,0.2260954,10.61402,272.1495,339.4572
1.106465,0.414645,0.07523324,0.05710279,343.7398,267.3436,359.2483,0.2042689,-0.5260859,0.225275,10.85268,272.2245,339.7946
1.117399,0.4134872,0.07491018,0.05702897,343.821,267.3524,359.3251,0.2036954,-0.5286137,0.2242761,11.52079,271.8904,340.0185
1.128626,0.4121219,0.07462875,0.05693165,343.9421,267.386,359.394,0.203051,-0.5311432,0.2233727,12.09806,271.9333,340.4252
1.139622,0.4106526,0.0743238,0.05677981,344.1063,267.4564,359.4752,0.2024112,-0.5339056,0.2222366,12.86781,272.1534,341.1528
1.150712,0.4091281,0.07396548,0.05665863,344.2783,267.4816,359.538,0.2016474,-0.537186,0.2204449,14.23133,272.3325,342.4128
1.161927,0.4074476,0.07357454,0.05657365,344.4694,267.4501,359.4648,0.2007325,-0.5408909,0.2180582,15.71904,272.3648,344.1043
1.172845,0.4057227,0.07301982,0.05646157,344.5142,267.4706,359.4144,0.1997874,-0.5451104,0.2150948,16.95259,272.3386,346.25
1.184508,0.4038814,0.07249526,0.05633531,344.66,267.508,359.3376,0.1991302,-0.5493286,0.2122155,17.7858,272.3407,348.2908
1.195833,0.4019892,0.07197641,0.05603731,344.9026,267.4798,359.298,0.1987923,-0.5536468,0.2090704,18.21169,272.2422,350.3799
1.206897,0.3999368,0.07139398,0.05568115,345.078,267.3783,359.3744,0.1986496,-0.5576373,0.2058992,18.35055,272.0215,352.2926
1.217571,0.3978174,0.0708608,0.05520883,345.3155,267.2808,359.4081,0.1988406,-0.5612466,0.2025594,17.99186,271.6259,354.0705
1.229074,0.3956072,0.07039054,0.05465144,345.6177,267.1364,359.4282,0.1994057,-0.5642957,0.1990554,16.89755,270.7869,355.7112
1.240176,0.3932446,0.06988383,0.05401933,345.8284,267.0191,359.4103,0.1998894,-0.5671708,0.1956495,15.69217,269.6022,357.1457
1.250745,0.3909393,0.06948937,0.05331151,346.0973,266.9046,359.3344,0.1995903,-0.5704733,0.1924933,15.16888,268.7631,358.4759
1.262628,0.3885171,0.0690992,0.05260867,346.3382,266.7469,359.3937,0.1982297,-0.5739949,0.1893114,15.78265,268.6636,359.754
1.273337,0.3859998,0.06860605,0.05186752,346.4712,266.6026,359.4362,0.1966339,-0.5775402,0.1862017,16.93595,269.1876,0.8784476
1.284254,0.3833584,0.06822789,0.05097938,346.6756,266.5201,359.4458,0.1951865,-0.5811771,0.1831117,18.27478,269.4882,1.928352
1.295234,0.3806531,0.06778961,0.05007915,346.7964,266.3486,359.5006,0.1946009,-0.5845389,0.1800779,18.96663,269.3651,2.681256
1.306524,0.3777848,0.06732169,0.04907295,346.8686,266.166,359.6365,0.1941513,-0.5878888,0.1769875,19.34413,268.8619,3.173476
1.317881,0.3748259,0.06677847,0.04794125,346.8636,266.0204,359.7341,0.1936245,-0.5911811,0.1738076,19.43995,268.2373,3.597013
1.329444,0.3719482,0.06632764,0.04674026,347.0358,265.9045,359.7854,0.1928851,-0.5943968,0.1705647,19.3897,267.7942,4.143161
1.340198,0.3688497,0.0657133,0.04559069,347.1127,265.7068,359.8676,0.1919005,-0.5975346,0.1674409,19.34388,267.5016,4.718106
1.350999,0.3656342,0.06509461,0.04435021,347.2272,265.5857,359.9496,0.1907898,-0.6006578,0.1644378,19.51129,267.1926,5.177495
1.362545,0.362488,0.06450505,0.04306079,347.3512,265.5093,359.9661,0.1894191,-0.603767,0.1615593,19.99974,266.8464,5.385374
